"Time (s)","X (rad/s)","Y (rad/s)","Z (rad/s)"
7.378875045E-3,2.173004895E-1,9.085034579E-2,-6.957372278E-2
1.732887491E-2,3.392744809E-2,-8.104085922E-3,-9.542833269E-2
2.727887500E-2,-1.415471733E-1,-7.402425259E-2,-1.122920066E-1
3.722887486E-2,-2.733376920E-1,-1.233503520E-1,-1.115034670E-1
4.717887496E-2,-3.303221464E-1,-1.800200343E-1,-9.254202247E-2
5.712887505E-2,-3.502182066E-1,-2.773178816E-1,-9.072669595E-2
6.707887491E-2,-3.303243816E-1,-3.783880472E-1,-1.584716588E-1
7.702887501E-2,-2.965150177E-1,-5.282420516E-1,-2.881479859E-1
8.697887487E-2,-2.513723075E-1,-6.395480633E-1,-2.555383444E-1
9.692887496E-2,-2.532888055E-1,-3.539330661E-1,-3.100708425E-1
1.068798751E-1,-2.828352749E-1,-1.266234666E-1,-3.294698298E-1
1.168298749E-1,-3.439861536E-1,2.973031625E-2,-3.254244030E-1
1.267798750E-1,-4.112416208E-1,1.035438180E-1,-3.061708212E-1
1.367298749E-1,-4.811538458E-1,7.855453342E-2,-2.874805629E-1
1.466798750E-1,-5.527084470E-1,8.408991247E-2,-2.706381977E-1
1.566298751E-1,-6.056430936E-1,1.530852318E-1,-2.439454645E-1
1.665798749E-1,-6.046422720E-1,3.008168936E-1,-2.466653436E-1
1.765298750E-1,-5.764264464E-1,4.347962141E-1,-3.203172386E-1
1.864798749E-1,-5.401089191E-1,4.630789757E-1,-4.357759058E-1
1.964308750E-1,-5.053544641E-1,4.056303799E-1,-5.393735170E-1
2.063808748E-1,-4.715429842E-1,3.642869294E-1,-5.688296556E-1
2.163308749E-1,-4.004648328E-1,4.361026883E-1,-5.123236775E-1
2.262808750E-1,-3.141853511E-1,5.787724853E-1,-4.235946238E-1
2.362308749E-1,-2.345495671E-1,7.065635324E-1,-3.929982781E-1
2.461808750E-1,-2.157915980E-1,8.006338477E-1,-4.553074837E-1
2.561308749E-1,-2.346328050E-1,8.407998681E-1,-5.391504765E-1
2.660808749E-1,-2.951653600E-1,8.403532505E-1,-5.730951428E-1
2.760308750E-1,-3.878104389E-1,8.128775954E-1,-5.406107903E-1
2.859798749E-1,-4.783837497E-1,5.799394250E-1,-4.357648492E-1
2.959308750E-1,-5.099868774E-1,1.248316541E-1,-2.742189765E-1
3.058808749E-1,-4.922387600E-1,-3.175076097E-2,-1.508826613E-1
3.158308750E-1,-4.370888770E-1,-3.244898096E-2,-6.980683655E-2
3.257808750E-1,-3.803036213E-1,1.375725567E-1,-2.609637007E-2
3.357308749E-1,-3.403748870E-1,3.197104633E-1,6.308263633E-3
3.456808750E-1,-3.430793285E-1,4.719591141E-1,3.532340378E-2
3.556308749E-1,-4.249124825E-1,6.466030478E-1,4.893686995E-2
3.655808750E-1,-5.279546976E-1,8.410191536E-1,6.105665118E-2
3.755308751E-1,-6.073831320E-1,1.053972006E0,5.459312722E-2
3.854808749E-1,-6.528875232E-1,1.233773232E0,1.667184196E-2
3.954318750E-1,-6.578007936E-1,1.300189257E0,9.489835240E-3
4.053818749E-1,-6.649135947E-1,1.248222232E0,3.264761716E-2
4.153318750E-1,-7.367422581E-1,1.258309364E0,5.950304493E-2
4.252818751E-1,-8.600040078E-1,1.327573657E0,6.284265220E-2
4.352318749E-1,-9.560623169E-1,1.427456021E0,1.187054161E-2
4.451818750E-1,-1.002365589E0,1.583805680E0,-8.233664930E-2
4.551318749E-1,-9.877255559E-1,1.924109340E0,-2.074767202E-1
4.650818750E-1,-1.034987688E0,1.992133379E0,-2.781202495E-1
4.750318748E-1,-1.066191435E0,1.985946417E0,-4.142940938E-1
4.849818749E-1,-9.468153119E-1,2.185257196E0,-6.675636172E-1
4.949328750E-1,-9.626728892E-1,2.250226259E0,-7.307265997E-1
5.048828749E-1,-9.860810041E-1,2.429420471E0,-6.299336553E-1
5.148328750E-1,-9.926114678E-1,2.583067417E0,-5.550453663E-1
5.247828749E-1,-1.022673726E0,2.718319893E0,-5.720301867E-1
5.347328749E-1,-1.062098742E0,2.869496346E0,-6.602081060E-1
5.446828750E-1,-1.168393970E0,2.971139908E0,-7.787078619E-1
5.546328749E-1,-1.337492824E0,3.026960850E0,-8.895530105E-1
5.645828750E-1,-1.552507639E0,2.980457306E0,-9.923182130E-1
5.745328749E-1,-1.796396852E0,2.843886375E0,-1.110764623E0
5.844838750E-1,-1.995237708E0,2.771667004E0,-1.237829685E0
5.944338751E-1,-2.094401121E0,2.759806871E0,-1.384525776E0
6.043838749E-1,-2.145884514E0,2.842146635E0,-1.537776589E0
6.143338750E-1,-2.186920881E0,3.036961317E0,-1.672703981E0
6.242838749E-1,-2.149589062E0,3.361572266E0,-1.784054518E0
6.342338750E-1,-2.084691286E0,3.653592110E0,-1.919838667E0
6.441838751E-1,-2.046695948E0,3.778852701E0,-2.079405785E0
6.541338749E-1,-2.139164686E0,3.606429577E0,-2.266208887E0
6.640838750E-1,-2.391483307E0,3.192539692E0,-2.457303286E0
6.740338749E-1,-2.667873859E0,2.660398483E0,-2.633360386E0
6.839848750E-1,-2.845652819E0,2.128408670E0,-2.752293348E0
6.939348748E-1,-2.883034468E0,1.675459981E0,-2.808869362E0
7.038848749E-1,-2.755868435E0,1.345127821E0,-2.820032835E0
7.138348750E-1,-2.503621817E0,1.152065039E0,-2.821476698E0
7.237848749E-1,-2.243499279E0,1.059389234E0,-2.875596285E0
7.337348750E-1,-2.130272865E0,9.725723863E-1,-2.980184793E0
7.436848748E-1,-2.207226276E0,8.032968044E-1,-3.111645699E0
7.536348749E-1,-2.424430847E0,5.280560851E-1,-3.239099741E0
7.635848750E-1,-2.690584421E0,1.600770205E-1,-3.314588070E0
7.735358749E-1,-2.866143227E0,-1.929583102E-1,-3.323351145E0
7.834858750E-1,-2.767977238E0,-4.164348245E-1,-3.316056490E0
7.934358749E-1,-2.329470396E0,-6.039217710E-1,-3.317157507E0
8.033858750E-1,-1.662793875E0,-8.519787192E-1,-3.289575815E0
8.133358750E-1,-9.617183805E-1,-1.121547461E0,-3.241632938E0
8.232858749E-1,-4.238495827E-1,-1.369882345E0,-3.158850193E0
8.332358750E-1,-8.952454478E-2,-1.640561938E0,-3.064897776E0
8.431858749E-1,7.501540333E-2,-1.955571055E0,-2.972830772E0
8.531358750E-1,1.131614819E-1,-2.211342573E0,-2.867073536E0
8.630858751E-1,8.836984634E-2,-2.282976866E0,-2.704713345E0
8.730368749E-1,1.447273493E-1,-2.179629326E0,-2.431922436E0
8.829868750E-1,3.554230630E-1,-1.946379542E0,-2.089254856E0
8.929368749E-1,6.597512960E-1,-1.672836185E0,-1.742714286E0
9.028868750E-1,9.549512863E-1,-1.532750726E0,-1.462425470E0
9.128368751E-1,1.205881596E0,-1.607492328E0,-1.285578370E0
9.227868749E-1,1.408392906E0,-1.881613851E0,-1.172739148E0
9.327368750E-1,1.553109288E0,-2.238966703E0,-1.093645930E0
9.426868749E-1,1.631398439E0,-2.546494246E0,-9.985146523E-1
9.526368750E-1,1.663739443E0,-2.717682838E0,-8.852618337E-1
9.625878748E-1,1.689321518E0,-2.737160683E0,-7.598940134E-1
9.725378749E-1,1.682499409E0,-2.602054596E0,-5.947332978E-1
9.824878750E-1,1.711542249E0,-2.366240501E0,-4.670072794E-1
9.924378749E-1,1.753284812E0,-2.124114037E0,-4.063935876E-1
1.002387875E0,1.787442207E0,-1.928423762E0,-3.469187915E-1
1.012337875E0,1.794173121E0,-1.788221955E0,-2.941279113E-1
1.022287875E0,1.714169383E0,-1.630571127E0,-2.462951690E-1
1.032237875E0,1.597639918E0,-1.409722805E0,-1.940074265E-1
1.042188875E0,1.091357231E0,-8.976483345E-1,-8.140711486E-2
1.052138875E0,3.496013880E-1,-6.121234894E-1,4.709477723E-2
1.062088875E0,-2.350343615E-1,-4.620466232E-1,2.100011408E-1
1.072038875E0,-3.219920099E-1,-2.055986673E-1,1.632183194E-1
1.081988875E0,-5.946664512E-2,3.768884540E-1,-2.588050812E-2
1.091938875E0,1.449837089E-1,1.098587751E0,-7.097070664E-2
1.101888875E0,2.512651384E-1,1.535435319E0,-8.838938177E-2
1.111838875E0,2.189869881E-1,1.631043673E0,-1.221957356E-1
1.121788875E0,9.861049801E-2,1.478698134E0,-1.445337981E-1
1.131739875E0,-1.037733816E-2,1.222042680E0,-1.602458358E-1
1.141689875E0,-9.155501425E-2,1.014111280E0,-1.247096807E-1
1.151639875E0,-1.202781349E-1,8.219369054E-1,-8.574175090E-2
1.161589875E0,-1.705346406E-1,6.149160862E-1,-2.920789458E-2
1.171539875E0,-1.529291719E-1,2.184144109E-1,-4.053355753E-2
1.181489875E0,-2.090920508E-1,-1.031585634E-1,-6.124416739E-2
1.191439875E0,-2.636395991E-1,-3.608134389E-1,-6.389144063E-2
1.201389875E0,-3.215492368E-1,-5.300946236E-1,-5.395464972E-2
1.211340875E0,-3.158543706E-1,-3.818706870E-1,-1.384649333E-2
1.221290875E0,-3.888473511E-1,-2.658426166E-1,-1.787699759E-3
1.231240875E0,-5.146992803E-1,-2.049585879E-1,1.105524078E-1
1.241190875E0,-5.733031631E-1,-1.004843712E-1,1.844370067E-1
1.251140875E0,-6.161276102E-1,9.818075225E-3,2.519991696E-1
1.261090875E0,-5.748478174E-1,4.494889826E-2,2.700700760E-1
1.271040875E0,-6.095287204E-1,-7.516222075E-3,2.771572769E-1
1.280990875E0,-6.933130622E-1,-1.283702105E-1,2.719702423E-1
1.290942667E0,-7.509093285E-1,-3.563502729E-1,2.449268550E-1
1.300892667E0,-7.755608559E-1,-5.896823406E-1,1.813316345E-1
1.310842667E0,-8.491937518E-1,-7.585560083E-1,1.252583861E-1
1.320792667E0,-9.590805769E-1,-8.897712827E-1,6.718017161E-2
1.330742667E0,-1.076059699E0,-9.654344320E-1,1.594865322E-2
1.340692667E0,-1.156936407E0,-9.768527150E-1,-2.706645802E-2
1.350642667E0,-1.220651031E0,-8.548750877E-1,-3.500253335E-2
1.360592667E0,-1.265825152E0,-5.782656074E-1,2.927845344E-2
1.370543667E0,-1.294708133E0,-3.578701317E-1,8.891168237E-2
1.380493667E0,-1.323752284E0,-2.332701534E-1,-1.278240830E-1
1.390443667E0,-1.430229425E0,-1.656265557E-1,-3.064441979E-1
1.400393667E0,-1.589025140E0,-1.326832473E-1,-4.620945156E-1
1.410343667E0,-1.799058080E0,-1.166199893E-1,-5.865112543E-1
1.420293667E0,-2.011322737E0,-1.219202131E-1,-6.380274296E-1
1.430243667E0,-2.157397985E0,-2.409699559E-1,-6.330779195E-1
1.440193667E0,-2.314581871E0,-4.795420468E-1,-5.609949827E-1
1.450144667E0,-2.447030544E0,-6.094157100E-1,-5.036615133E-1
1.460094667E0,-2.475584030E0,-5.401335359E-1,-3.527079523E-1
1.470044667E0,-2.394477844E0,-2.967914045E-1,-2.116698772E-1
1.479994667E0,-2.216721773E0,1.276291013E-1,-9.679334611E-2
1.489944667E0,-1.960272074E0,3.913285434E-1,2.721132934E-1
1.499894667E0,-1.745182395E0,6.294097900E-1,4.441218078E-1
1.509844667E0,-1.679457188E0,7.132838368E-1,4.891520441E-1
1.519795667E0,-1.450880885E0,4.910201430E-1,6.237630844E-1
1.529745667E0,-1.205067754E0,2.066005915E-1,6.042112112E-1
1.539695667E0,-9.561441541E-1,8.646086603E-2,8.003354669E-1
1.549645667E0,-5.598105788E-1,-7.899127901E-3,1.044735074E0
1.559595667E0,-2.562863827E-1,1.786260009E-1,1.046047449E0
1.569545667E0,-7.145487517E-2,2.395252585E-1,1.090779781E0
1.579495667E0,2.967733704E-2,4.087992311E-1,1.081047416E0
1.589445667E0,1.819504350E-1,3.138850927E-1,9.292137027E-1
1.599396667E0,2.686424553E-1,2.394701168E-2,8.660174608E-1
1.609346667E0,1.506123394E-1,-2.794198394E-1,8.143526316E-1
1.619296667E0,3.216186911E-2,-2.608110011E-1,9.107406735E-1
1.629246667E0,-9.324990213E-3,-2.497896403E-1,1.025752783E0
1.639196667E0,-6.732863933E-2,-3.279627562E-1,8.827494979E-1
1.649146667E0,-1.252991259E-1,-4.615117908E-1,7.379038930E-1
1.659096667E0,-1.562120318E-1,-4.881194234E-1,6.348600388E-1
1.669047667E0,-1.373642087E-1,-4.955796003E-1,5.590199828E-1
1.678997667E0,-1.530997604E-1,-3.615909219E-1,4.204232395E-1
1.688947667E0,-7.049416900E-1,4.476717114E-1,-2.867558599E-1
1.698897667E0,-9.821943641E-1,8.781335950E-1,-5.092597604E-1
1.708847667E0,-8.969944119E-1,9.512735605E-1,-4.446459115E-1
1.718797667E0,-5.273069143E-1,6.951650381E-1,-3.927105367E-1
1.728747667E0,-6.376725435E-2,3.169758916E-1,-3.238731623E-1
1.738697667E0,2.702852786E-1,3.647151962E-2,-3.024219275E-1
1.748648667E0,2.456542403E-1,-2.275064141E-1,-2.674780190E-1
1.758598667E0,-5.411008373E-3,-7.899072021E-2,-3.108230829E-1
1.768548667E0,-2.286132276E-1,6.201116368E-2,-4.313369393E-1
1.778498667E0,-3.268774748E-1,1.827136129E-1,-4.468895197E-1
1.788448667E0,-3.005136251E-1,1.962305158E-1,-3.679519296E-1
1.798398667E0,-1.898033470E-1,2.149669230E-1,-1.731784642E-1
1.808349667E0,-1.723897085E-2,1.337366700E-1,-1.665912569E-2
1.818299667E0,1.183044761E-1,6.155168265E-2,1.728232764E-2
1.828249667E0,7.344898582E-2,8.001923561E-2,6.895973347E-3
1.838199667E0,3.825020976E-4,1.744055003E-2,-2.955858596E-3
1.848149667E0,-4.132505879E-2,-3.657108545E-2,5.633355584E-3
1.858099667E0,-2.124589309E-2,-7.574405521E-2,1.801252738E-2
1.868049667E0,-5.076347850E-3,-9.426488727E-2,1.727472246E-2
1.878000667E0,2.281786874E-2,-8.795292675E-2,1.652131416E-2
1.887950667E0,3.912873194E-2,-6.582634151E-2,2.070034295E-2
1.897900667E0,4.304144531E-2,-4.174843803E-2,1.678815857E-2
1.907850667E0,3.686112165E-2,-3.029162623E-2,1.255397685E-2
1.917800667E0,2.577731200E-2,-2.843593620E-2,5.669971928E-3
1.927750667E0,3.553831717E-3,-3.701319918E-2,3.875263967E-3
1.937700667E0,-1.560601406E-2,-2.941413596E-2,-7.952099666E-3
1.947651667E0,-2.840072848E-2,-2.688613348E-2,-1.260826364E-2
1.957601667E0,-3.833458573E-2,-2.819454297E-2,-1.427753270E-2
1.967551667E0,-2.049511373E-1,-2.460199594E-2,1.182601321E-2
1.977501667E0,-1.573011398E0,3.104929030E-1,2.075614184E-1
1.987451667E0,-2.205824614E0,7.170124054E-1,1.319559962E-1
1.997401667E0,-1.909744740E0,7.761697173E-1,-9.605959058E-2
2.007351667E0,-1.470170617E0,7.572313547E-1,1.978442818E-2
2.017302667E0,-9.480306506E-1,4.586736262E-1,1.169266850E-1
2.027252667E0,-5.050697327E-1,2.282287776E-1,1.084460020E-1
2.037202667E0,-1.285909265E-1,1.709266156E-1,4.523587227E-2
2.047152667E0,1.669520289E-1,1.334808171E-1,-1.323079411E-2
2.057102667E0,3.831349313E-1,1.032699123E-1,-8.840970695E-2
2.067052667E0,5.646333694E-1,6.653149426E-2,-2.022977620E-1
2.077003667E0,6.789658070E-1,1.082961634E-2,-3.535064459E-1
2.086953667E0,7.344174981E-1,-6.853878498E-2,-5.056551695E-1
2.096903667E0,7.653232217E-1,-1.399876624E-1,-6.130663157E-1
2.106853667E0,7.712491155E-1,-1.962245852E-1,-6.614764929E-1
2.116803667E0,7.410427332E-1,-2.418772876E-1,-6.228662729E-1
2.126753667E0,6.526443362E-1,-2.391382009E-1,-5.201560259E-1
2.136703667E0,5.217017531E-1,-1.923903972E-1,-4.142074883E-1
2.146654667E0,3.427503407E-1,-1.062411070E-1,-3.507768512E-1
2.156604667E0,1.419421434E-1,2.592597902E-2,-3.395659924E-1
2.166554667E0,-6.752968580E-2,1.300977916E-1,-3.337325156E-1
2.176504667E0,-2.236662954E-1,1.610895246E-1,-2.968309522E-1
2.186454667E0,-3.092566133E-1,1.435949653E-1,-2.174329311E-1
2.196404667E0,-3.068291247E-1,1.126591563E-1,-1.144767255E-1
2.206355667E0,-2.229483426E-1,3.538396955E-2,-3.016207740E-2
2.216305667E0,-1.257525533E-1,-9.201659262E-2,2.615206130E-2
2.226255667E0,-7.105465047E-4,-1.821449548E-1,1.027333811E-1
2.236205667E0,8.370286971E-2,-2.963348925E-1,1.544317305E-1
2.246155667E0,3.321715593E-1,-4.093208611E-1,1.949800849E-1
2.256105667E0,3.595451415E-1,-6.213545203E-1,3.099250197E-1
2.266056667E0,3.300327361E-1,-4.532051980E-1,2.758570910E-1
2.276006667E0,1.179995537E-1,-1.175414473E-1,1.570215225E-1
2.285956542E0,5.530067161E-2,-7.711559534E-2,1.207602918E-1
2.295906542E0,1.069164574E-1,-6.114142016E-2,9.531964362E-2
2.305856542E0,1.718187630E-1,-3.446514904E-2,7.647057623E-2
2.315806542E0,3.383172154E-1,4.216811061E-2,-3.064069897E-2
2.325756542E0,3.645152748E-1,2.709461004E-2,-1.131644696E-1
2.335707542E0,3.760885894E-1,-6.189864501E-2,-2.043990344E-1
2.345657542E0,3.429144323E-1,-3.680681810E-2,-2.410265505E-1
2.355607542E0,4.900189340E-1,-4.993886128E-2,-2.706640661E-1
2.365557542E0,4.977256358E-1,-1.205426604E-1,-2.384755015E-1
2.375507542E0,3.848430514E-1,-9.155681729E-2,-2.562877834E-1
2.385457542E0,2.983770669E-1,-8.942574263E-2,-2.991617620E-1
2.395408542E0,2.932526171E-1,-1.555991620E-1,-2.910622656E-1
2.405358542E0,2.307140976E-1,-2.231148183E-1,-2.609577477E-1
2.415308542E0,1.142513976E-1,-2.168705016E-1,-2.163655311E-1
2.425258542E0,9.094835818E-2,-1.629767716E-1,-2.116296440E-1
2.435208542E0,6.224187091E-2,-4.562084377E-2,-2.018345445E-1
2.445158542E0,5.890575051E-2,4.209819809E-2,-1.069855541E-1
2.455109542E0,8.880772442E-2,1.229448467E-1,-4.869136214E-2
2.465059542E0,2.301373631E-1,9.423454106E-2,-5.219245329E-2
2.475009542E0,3.949417472E-1,-8.495438844E-2,-3.230210394E-2
2.484959542E0,3.323754966E-1,-4.616728425E-2,3.080536425E-2
2.494909542E0,2.363331020E-1,2.737670764E-2,9.293211997E-2
2.504859542E0,1.251842231E-1,7.757916301E-2,1.499874145E-1
2.514810542E0,2.772317082E-2,4.032819346E-2,2.121594399E-1
2.524760542E0,-4.819346592E-2,3.681629151E-2,2.255946994E-1
2.534710542E0,-6.783135235E-2,1.967805251E-2,2.487516850E-1
2.544660542E0,-5.003777519E-2,2.656531334E-2,2.617088556E-1
2.554610542E0,-2.867549658E-2,6.257951260E-2,2.775823474E-1
2.564561542E0,1.207024092E-3,8.794086426E-2,2.505523562E-1
2.574511542E0,4.167002812E-2,1.259226054E-1,2.106206417E-1
2.584461542E0,8.381886035E-2,1.535847634E-1,1.694235355E-1
2.594411542E0,1.142228395E-1,1.637713611E-1,1.188639477E-1
2.604361542E0,1.326111257E-1,1.604834348E-1,4.791481048E-2
2.614311542E0,1.415771842E-1,1.438011229E-1,-1.479810663E-2
2.624262542E0,1.520697325E-1,1.516501307E-1,-5.925161764E-2
2.634212542E0,1.308355480E-1,1.849510968E-1,-1.072830558E-1
2.644162542E0,8.978229761E-2,2.026057541E-1,-1.688677222E-1
2.654112542E0,6.485936046E-2,2.103353143E-1,-2.625260353E-1
2.664062542E0,6.985253841E-2,1.795312464E-1,-3.857779503E-1
2.674012542E0,8.489460498E-2,1.133860499E-1,-5.469854474E-1
2.683963542E0,1.076335162E-1,-1.131473854E-2,-7.183423042E-1
2.693913542E0,1.489474028E-1,-1.710058600E-1,-8.234639168E-1
2.703863542E0,-1.284566224E-1,-2.821942866E-1,-4.644455910E-1
2.713813542E0,-1.861494780E-1,-1.090549901E-1,-2.431004047E-1
2.723763542E0,-5.666726083E-2,-1.942795664E-1,-1.364906132E-1
2.733713542E0,9.998850524E-3,-2.575344443E-1,-2.272649109E-2
2.743664542E0,-2.369901538E-2,-2.997170985E-1,2.189636230E-3
2.753614542E0,-8.471204340E-2,-3.659347296E-1,-2.101741545E-2
2.763564542E0,-1.125403792E-1,-4.170780480E-1,-5.661974475E-2
2.773514542E0,-1.092343330E-1,-4.435458779E-1,-1.019954756E-1
2.783464542E0,-9.688518196E-2,-4.380222559E-1,-1.384023279E-1
2.793415542E0,-8.258587122E-2,-4.120875895E-1,-1.660390198E-1
2.803365542E0,-6.647117436E-2,-3.539848924E-1,-1.749446690E-1
2.813315542E0,-6.330920756E-2,-3.041107953E-1,-1.847685426E-1
2.823265542E0,-6.883819401E-2,-2.717408836E-1,-1.899814010E-1
2.833215542E0,-7.621648163E-2,-2.531962097E-1,-1.971359849E-1
2.843165542E0,-7.610009611E-2,-2.255676389E-1,-2.045077235E-1
2.853116542E0,6.229533255E-2,-2.244621888E-2,-2.517759204E-1
2.863066542E0,2.403563075E-2,-5.260626972E-2,-2.112878710E-1
2.873016542E0,-1.089921892E-1,-2.004647106E-1,-1.656785756E-1
2.882966542E0,-1.409568638E-1,-2.553195357E-1,-1.466379315E-1
2.892916542E0,-1.119963154E-1,-2.095291615E-1,-1.415337175E-1
2.902867542E0,-8.810947090E-2,-1.350086033E-1,-1.507897526E-1
2.912817542E0,-8.128058910E-2,-8.324981481E-2,-1.565533727E-1
2.922767542E0,-6.481698155E-2,-4.491440952E-2,-1.631515324E-1
2.932717542E0,-4.498921707E-2,-1.682738215E-2,-1.691138148E-1
2.942667542E0,-3.303586692E-2,-8.543422446E-3,-1.671372205E-1
2.952617542E0,-2.981557325E-2,-1.781601831E-2,-1.518695801E-1
2.962568542E0,-1.860012859E-2,-3.732701764E-2,-1.356723607E-1
2.972518542E0,-2.377944253E-2,-4.550318792E-2,-1.115699559E-1
2.982468542E0,-2.399075776E-2,-4.278067872E-2,-9.334941208E-2
2.992418542E0,-2.732636780E-2,-2.559955791E-2,-8.134707063E-2
3.002368542E0,-3.169714659E-2,-5.759643391E-4,-7.938458771E-2
3.012319542E0,-2.780227363E-2,4.180717841E-2,-8.446883410E-2
3.022269542E0,-1.995700784E-2,8.738082647E-2,-9.610098600E-2
3.032219542E0,-7.643883117E-3,1.284060180E-1,-1.105643436E-1
3.042169542E0,-4.833700135E-3,1.456055790E-1,-1.174072400E-1
3.052119542E0,-2.623010427E-3,1.504400223E-1,-1.270619929E-1
3.062070542E0,-8.602020331E-3,1.369953603E-1,-1.273424029E-1
3.072020542E0,-1.437442284E-2,1.228931323E-1,-1.299206167E-1
3.081970542E0,-3.069429100E-2,1.149242222E-1,-1.315398067E-1
3.091920542E0,-3.586748242E-2,1.205730438E-1,-1.293909103E-1
3.101870542E0,-3.435420245E-2,1.392128915E-1,-1.314204037E-1
3.111821542E0,-3.928664327E-2,1.709830761E-1,-1.313615441E-1
3.121771542E0,-2.963105030E-2,2.001570612E-1,-1.314768344E-1
3.131721542E0,-2.987792529E-2,2.285839170E-1,-1.303324699E-1
3.141671542E0,-3.113280796E-2,2.481477559E-1,-1.265811324E-1
3.151621542E0,-3.404337540E-2,2.645784020E-1,-1.255259961E-1
3.161572542E0,-4.479189217E-2,2.708448172E-1,-1.243089288E-1
3.171522542E0,-3.903866559E-2,2.669989467E-1,-1.206686497E-1
3.181472542E0,-4.561015591E-2,2.650538087E-1,-1.230231524E-1
3.191422542E0,-4.586209357E-2,2.682762146E-1,-1.226036996E-1
3.201372542E0,-3.687655181E-2,2.794812024E-1,-1.251977533E-1
3.211322542E0,-3.326983377E-2,2.931115329E-1,-1.312841475E-1
3.221273542E0,-2.923919261E-2,3.095375896E-1,-1.365164667E-1
3.231223542E0,-2.429077402E-2,3.265029788E-1,-1.460436583E-1
3.241173542E0,-1.360778697E-2,3.361931145E-1,-1.542548686E-1
3.251123542E0,-1.667841151E-2,3.374141753E-1,-1.606475264E-1
3.261073542E0,-1.548467577E-2,3.417982161E-1,-1.576273590E-1
