"Time (s)","X (rad/s)","Y (rad/s)","Z (rad/s)"
9.869833360E-3,-1.756813377E-1,-7.642458379E-2,-3.206917271E-2
1.992383337E-2,-2.285424173E-1,-7.951012254E-2,2.374029532E-2
2.997883334E-2,-2.362700105E-1,-7.518243790E-2,8.215880394E-2
4.003283335E-2,-2.240554094E-1,-7.860246301E-2,1.173391715E-1
5.008683336E-2,-2.089591473E-1,-1.343184561E-1,1.308757663E-1
6.014083338E-2,-2.069284916E-1,-2.145147622E-1,1.169468910E-1
7.019483333E-2,-2.285028994E-1,-2.675319314E-1,9.714921564E-2
8.024883334E-2,-2.523714900E-1,-2.727043033E-1,7.801999897E-2
9.030383336E-2,-2.684432268E-1,-2.786062658E-1,6.806254387E-2
1.003578334E-1,-2.704405785E-1,-2.949940264E-1,6.182435155E-2
1.104118333E-1,-2.747500241E-1,-2.836237848E-1,4.463273659E-2
1.204658333E-1,-2.687744200E-1,-2.613182068E-1,1.749725640E-2
1.305198334E-1,-2.584090233E-1,-2.341051847E-1,-1.251156349E-2
1.405738334E-1,-2.605651319E-1,-1.780395210E-1,-1.441306062E-2
1.506278333E-1,-2.905535996E-1,-8.651178330E-2,-3.134139627E-2
1.606828333E-1,-3.103888333E-1,-1.025722548E-2,-4.119269550E-2
1.707368334E-1,-3.014182448E-1,9.438448586E-3,-2.848862112E-2
1.807908334E-1,-2.764902413E-1,-3.472048789E-2,-6.171595771E-3
1.908448333E-1,-2.502418160E-1,-1.267461330E-1,3.170346469E-2
2.008988333E-1,-1.927300692E-1,-2.521591783E-1,5.522503331E-2
2.109528334E-1,-1.351279914E-1,-3.627741635E-1,3.321540356E-2
2.210078334E-1,-7.526997477E-2,-4.399674833E-1,2.209377848E-2
2.310618333E-1,-6.969045103E-2,-4.572542310E-1,-2.128585242E-3
2.411158333E-1,-1.453599185E-1,-3.338103294E-1,-8.807705343E-2
2.511698334E-1,-2.396623194E-1,-1.202237234E-1,-2.355615795E-1
2.612238334E-1,-2.278208435E-1,-2.151417313E-3,-4.354073405E-1
2.712778334E-1,-2.297480591E-2,-8.008605242E-2,-6.927750707E-1
2.813328333E-1,3.255083561E-1,-3.278053105E-1,-9.510524273E-1
2.913868334E-1,7.182998657E-1,-5.767009258E-1,-1.170949817E0
3.014408334E-1,1.069612861E0,-8.184946775E-1,-1.378646016E0
3.114948333E-1,1.327410698E0,-1.152483582E0,-1.404176950E0
3.215488333E-1,1.408132553E0,-1.242741585E0,-1.185470462E0
3.316028334E-1,1.304581165E0,-8.396147490E-1,-7.658634186E-1
3.416568334E-1,1.041322351E0,4.804467559E-1,-3.505271673E-1
3.517118333E-1,6.340671778E-1,1.733739853E0,-7.892356068E-2
3.617658333E-1,2.717313170E-1,2.657400131E0,-2.559030056E-2
3.718198334E-1,5.028832331E-2,3.026251316E0,-1.121854931E-1
3.818738334E-1,-1.148209721E-2,3.046126604E0,-2.738308609E-1
3.919278334E-1,3.920776770E-2,2.859549761E0,-5.428656340E-1
4.019818333E-1,1.186661050E-1,2.596447468E0,-9.334155321E-1
4.120368334E-1,2.393463999E-1,2.160945892E0,-1.300235033E0
4.220908334E-1,3.649173677E-1,1.647822618E0,-1.549233556E0
4.321448334E-1,3.978455365E-1,1.319549441E0,-1.715474725E0
4.421988333E-1,2.560524642E-1,1.240747571E0,-1.772338748E0
4.522528333E-1,2.481314586E-4,1.588926196E0,-1.769666195E0
4.623068334E-1,-1.882959455E-1,2.144808054E0,-1.828365445E0
4.723618334E-1,-4.366392195E-1,1.201505423E0,-2.034804344E0
4.824158333E-1,-6.982127428E-1,-1.208085537E0,-2.561698437E0
4.924698333E-1,-1.016806602E0,-3.961475790E-1,-3.464386225E0
5.025238334E-1,-1.076489329E0,3.350349963E-1,-3.999951124E0
5.125778334E-1,-4.472229779E-1,3.544661105E-1,-4.436391830E0
5.226318333E-1,5.055900216E-1,-3.725080565E-2,-4.712015152E0
5.326858333E-1,1.350812078E0,-1.215770990E-1,-5.014528275E0
5.427408334E-1,1.700003862E0,8.794683218E-2,-5.382019043E0
5.527948334E-1,1.705921054E0,2.883851230E-1,-5.573563099E0
5.628488333E-1,1.567428350E0,7.066411972E-1,-5.392030239E0
5.729028333E-1,1.379454017E0,1.092876911E0,-5.205053329E0
5.829568334E-1,8.907613158E-1,1.354915142E0,-5.416248322E0
5.930108334E-1,4.450403452E-1,1.585986137E0,-5.660884857E0
6.030658333E-1,6.438490003E-2,1.845254779E0,-5.897273540E0
6.131198333E-1,-3.396483064E-1,1.792834401E0,-6.020811558E0
6.231738334E-1,-9.130561352E-2,1.974856377E0,-6.257712364E0
6.332278334E-1,4.387637377E-1,2.049911499E0,-6.232767105E0
6.432818333E-1,4.923284352E-1,2.048394680E0,-6.066211224E0
6.533358333E-1,4.633439779E-1,1.830057621E0,-5.985394001E0
6.633908334E-1,5.144460797E-1,1.310038209E0,-5.957511425E0
6.734448334E-1,4.378070235E-1,7.363257408E-1,-5.789656162E0
6.834988333E-1,2.713317573E-1,4.460614324E-1,-5.606582642E0
6.935528333E-1,1.207911223E-1,3.242795765E-1,-5.449085236E0
7.036068334E-1,-2.249897122E-1,1.822032779E-2,-5.286005974E0
7.136608334E-1,-1.063447356E0,-6.134998798E-1,-5.044014454E0
7.237148334E-1,-1.794955611E0,-1.067373395E0,-4.553922176E0
7.337698333E-1,-1.878458142E0,-7.295130491E-1,-3.728049755E0
7.438274584E-1,-1.825730920E0,-1.617284417E-1,-3.207767010E0
7.538814584E-1,-1.621724010E0,4.311150610E-1,-2.698562622E0
7.639354584E-1,-1.376512885E0,8.680295348E-1,-2.156684637E0
7.739894583E-1,-1.048815727E0,9.407188296E-1,-1.693382025E0
7.840434583E-1,-7.768164277E-1,8.275235891E-1,-1.489139438E0
7.940984584E-1,-6.668519378E-1,7.262672186E-1,-1.529652953E0
8.041524583E-1,-6.765562296E-1,6.540742517E-1,-1.705034256E0
8.142064583E-1,-8.134621382E-1,6.104702353E-1,-1.907984018E0
8.242604584E-1,-9.385313988E-1,5.251127481E-1,-1.967104316E0
8.343144584E-1,-1.079737782E0,4.329714179E-1,-1.846763492E0
8.443684584E-1,-1.249658346E0,4.343309700E-1,-1.638916016E0
8.544224583E-1,-1.377642155E0,6.182931662E-1,-1.410285711E0
8.644774584E-1,-1.493474007E0,9.343054891E-1,-1.238678575E0
8.745314584E-1,-1.520009875E0,1.539659500E0,-1.236998200E0
8.845854584E-1,-1.198331952E0,2.199980497E0,-1.292712808E0
8.946394583E-1,-7.796511054E-1,3.164319038E0,-1.508697748E0
9.046934583E-1,-2.602401972E-1,3.717004299E0,-1.694361925E0
9.147474584E-1,2.773196101E-1,3.598013639E0,-1.661373973E0
9.248024584E-1,5.916165113E-1,3.187168360E0,-1.538167119E0
9.348564583E-1,1.038253307E0,2.522992611E0,-1.285457015E0
9.449104583E-1,1.308919072E0,1.493278980E0,-5.616535544E-1
9.549644584E-1,1.117563128E0,6.541457772E-1,1.986417472E-1
9.650184584E-1,2.191523761E-1,-3.335271776E-1,1.061372995E0
9.750724583E-1,-6.935971379E-1,-1.194462657E0,1.944856405E0
9.851264583E-1,-1.511422396E0,-1.416860104E0,2.202089787E0
9.951814584E-1,-2.071307898E0,-8.874853849E-1,2.157029629E0
1.005235458E0,-2.022579432E0,-1.695442945E-1,2.008718014E0
1.015289458E0,-1.664584875E0,3.924758434E-1,1.812929869E0
1.025343458E0,-1.335905075E0,8.504101038E-1,1.672069907E0
1.035397458E0,-1.024586201E0,1.183857560E0,1.790096402E0
1.045451458E0,-6.382446289E-1,1.200234771E0,1.997241139E0
1.055506458E0,-2.338033170E-1,1.036647320E0,2.184480429E0
1.065560458E0,-2.944002626E-3,9.490449429E-1,2.606858015E0
1.075614458E0,-1.672745869E-2,5.700147748E-1,3.006486177E0
1.085668458E0,-1.681143194E-1,4.687078595E-1,3.125162601E0
1.095722458E0,-4.154484868E-1,5.974869132E-1,2.858390808E0
1.105776458E0,-6.110848188E-1,6.302789450E-1,2.521210909E0
1.115830458E0,-6.590980887E-1,6.425926685E-1,2.147251844E0
1.125885458E0,-7.730419636E-1,7.153124213E-1,1.794889927E0
1.135939458E0,-1.006333351E0,8.669729233E-1,1.206021190E0
1.145993458E0,-1.297616601E0,1.139776707E0,6.888512969E-1
1.156047458E0,-1.527112246E0,1.390022159E0,5.185904503E-1
1.166101458E0,-1.848621845E0,1.758611441E0,4.123380482E-1
1.176155458E0,-2.278462887E0,2.073785067E0,4.043332636E-1
1.186210458E0,-2.474590302E0,2.339348078E0,4.198381901E-1
1.196264458E0,-2.623949528E0,2.122200727E0,3.350978196E-1
1.206318458E0,-2.786985397E0,1.503491521E0,2.063177228E-1
1.216372458E0,-2.981744528E0,7.331479192E-1,-9.840136766E-2
1.226426458E0,-3.219818115E0,-1.785783619E-1,-5.306233168E-1
1.236480458E0,-3.017388105E0,-1.013577819E0,-8.036302924E-1
1.246534458E0,-2.498773336E0,-1.476875901E0,-7.609382272E-1
1.256589458E0,-2.240169525E0,-1.902752042E0,-6.405721903E-1
1.266643458E0,-2.254324436E0,-2.347950220E0,-3.956060708E-1
1.276697458E0,-2.100897551E0,-2.055103064E0,-2.322806418E-1
1.286751458E0,-2.006732225E0,-1.218041778E0,-2.307538539E-1
1.296805458E0,-1.649691939E0,-4.242406487E-1,-1.449248940E-1
1.306859458E0,-1.167272329E0,3.664572239E-1,-2.586072385E-1
1.316914458E0,-7.546501756E-1,8.480880857E-1,-3.194006085E-1
1.326968458E0,-5.232076645E-1,6.678155661E-1,-9.612011909E-2
1.337022458E0,-4.562253654E-1,4.474499822E-1,3.922939003E-1
1.347076458E0,-3.299835324E-1,2.943248749E-1,9.096054435E-1
1.357130458E0,-1.104318723E-1,1.732392609E-1,1.222028375E0
1.367184458E0,1.454686224E-1,1.424504668E-1,1.503508687E0
1.377238458E0,3.364881873E-1,-5.400488973E-1,1.571076393E0
1.387293458E0,4.530576766E-1,-1.230488896E0,1.473096371E0
1.397347458E0,3.814793527E-1,-1.360960364E0,1.350526333E0
1.407401458E0,3.164833188E-1,-1.765071273E0,1.161187291E0
1.417455458E0,9.334677458E-2,-1.616952419E0,1.168274999E0
1.427509458E0,-3.270134926E-1,-1.037023902E0,1.312183380E0
1.437563458E0,-5.672539473E-1,-6.609109044E-1,1.397955060E0
1.447618458E0,-7.939669490E-1,-2.475981712E-1,9.653429389E-1
1.457672458E0,-1.083222508E0,2.765363269E-2,1.880770028E-1
1.467726458E0,-1.184980512E0,-1.105886623E-1,-3.775581717E-1
1.477780458E0,-1.000382662E0,-1.725061089E-1,-5.535235405E-1
1.487834458E0,-6.870551705E-1,-7.831914723E-2,-6.578084230E-1
1.497888458E0,-3.080655336E-1,1.254934818E-1,-7.767610550E-1
1.507942458E0,1.584768742E-1,4.305085242E-1,-7.932361364E-1
1.517997458E0,5.057538152E-1,3.501836658E-1,-6.770675778E-1
1.528051458E0,6.244493127E-1,2.158597112E-1,-4.003531635E-1
1.538105458E0,5.479431152E-1,2.738820016E-1,-1.622870713E-1
1.548159458E0,4.289309680E-1,4.315792024E-1,-5.173391476E-2
1.558213458E0,3.992757201E-1,5.068148375E-1,-4.897150677E-3
1.568267458E0,4.291087091E-1,7.152889371E-1,-1.985513121E-1
1.578322458E0,4.343430400E-1,9.030414820E-1,-5.410820246E-1
1.588376458E0,3.756403029E-1,8.620147109E-1,-9.021273255E-1
1.598430458E0,1.711422354E-1,7.033402324E-1,-1.170790315E0
1.608484458E0,-1.407746375E-1,3.343142569E-1,-1.464403510E0
1.618538458E0,-3.879249096E-1,2.853061259E-2,-1.853670597E0
1.628592458E0,-5.200312734E-1,-3.521309793E-1,-2.112864256E0
1.638646458E0,-5.397913456E-1,-5.919497609E-1,-2.015881538E0
1.648701458E0,-3.934477270E-1,-1.970150024E-1,-1.910913706E0
1.658755458E0,-2.268366069E-1,2.777999640E-1,-1.840266943E0
1.668809458E0,-1.098886877E-1,6.294794679E-1,-1.890589595E0
1.678863458E0,3.226819262E-2,8.014756441E-1,-2.057538748E0
1.688917458E0,1.667783260E-1,6.642877460E-1,-2.138774157E0
1.698971458E0,1.658981591E-1,4.588890374E-1,-2.060720444E0
1.709026458E0,2.651097253E-2,4.341655672E-1,-1.911521435E0
1.719080458E0,-1.060302034E-1,4.738976061E-1,-1.681247830E0
1.729134458E0,-9.102062881E-2,2.376618981E-1,-1.358941674E0
1.739185083E0,-1.683756523E-2,-1.517098844E-1,-8.894562125E-1
1.749239083E0,6.702191383E-2,-6.781486273E-1,-4.130355716E-1
1.759293083E0,1.294252574E-1,-1.248180389E0,-3.410633653E-2
1.769347083E0,2.079959661E-1,-1.840159535E0,2.777655423E-1
1.779402083E0,2.440514714E-1,-1.888403654E0,6.262349486E-1
1.789456083E0,1.280953139E-1,-1.399834156E0,8.373426199E-1
1.799510083E0,-8.325880766E-2,-1.000502706E0,8.062655926E-1
1.809564083E0,-4.128622711E-1,-1.078537107E0,7.943138480E-1
1.819618083E0,-1.111108899E0,-1.332320213E0,3.845120668E-1
1.829672083E0,-1.835353971E0,-1.029636502E0,-2.853488326E-1
1.839727083E0,-2.046695709E0,5.779800192E-2,-1.026089549E0
1.849781083E0,-1.986179590E0,1.615166664E0,-1.805026889E0
1.859835083E0,-1.697941303E0,2.190264225E0,-2.215562344E0
1.869889083E0,-8.521910906E-1,1.189211607E0,-1.929532886E0
1.879943083E0,3.975259662E-1,-7.416141778E-2,-1.244947314E0
1.889997083E0,9.526299238E-1,-9.952569604E-1,-6.504994035E-1
1.900051083E0,1.049687862E0,-8.596397042E-1,-3.781459332E-1
1.910106083E0,1.079414010E0,-4.496079981E-1,-1.936740577E-1
1.920160083E0,1.111894131E0,-6.307622045E-2,-1.655594110E-1
1.930214083E0,1.090503573E0,1.726428270E-1,-2.363661975E-1
1.940268083E0,6.196290851E-1,2.642803192E-1,-2.381805778E-1
1.950322083E0,-1.279095709E-1,6.579120159E-1,-9.037114680E-2
1.960376083E0,-2.344792932E-1,4.153097570E-1,-7.307415828E-3
1.970430083E0,-1.865575761E-1,2.701656222E-1,3.549917042E-2
1.980485083E0,-2.742815763E-2,1.692606807E-1,1.716214418E-2
1.990539083E0,5.040538684E-2,1.430250704E-1,1.468300913E-2
2.000593083E0,7.976808399E-2,4.831559584E-2,7.290612161E-2
2.010647083E0,1.567893624E-1,-5.079288036E-2,1.330746561E-1
2.020701083E0,1.367218196E-1,5.394382775E-2,1.452451199E-1
2.030755083E0,1.103845797E-2,2.585220039E-1,1.264200211E-1
2.040810083E0,-2.420529723E-1,5.021020770E-1,7.923322171E-2
2.050864083E0,-5.047884583E-1,6.772373915E-1,7.341394573E-2
2.060918083E0,-6.640042663E-1,6.236642003E-1,3.979573399E-2
2.070972083E0,-6.353041530E-1,4.495536685E-1,-1.479773689E-2
2.081026083E0,-4.506250024E-1,2.828924656E-1,-8.461406827E-2
2.091080083E0,-2.841966152E-1,2.659931183E-1,-1.084293872E-1
2.101134083E0,-2.827143371E-1,4.714811444E-1,-1.218795031E-1
2.111189083E0,-4.084797204E-1,9.590819478E-1,-2.707800567E-1
2.121243083E0,-6.703901887E-1,1.544727921E0,-5.940739512E-1
2.131297083E0,-9.450004101E-1,1.549292088E0,-1.002274990E0
2.141351083E0,-1.083981156E0,6.099974513E-1,-1.194570899E0
2.151405083E0,-1.190077543E0,-4.560763016E-3,-1.636510849E0
2.161459083E0,-1.030567169E0,-7.130185962E-1,-1.922922611E0
2.171514083E0,-6.380959749E-1,-2.258492112E-1,-2.102694750E0
2.181568083E0,-4.874776006E-1,3.454163298E-2,-2.186580420E0
2.191622083E0,-3.762315214E-1,-3.575582504E-1,-2.185981512E0
2.201676083E0,-2.517153919E-1,-1.233143955E-1,-2.443673611E0
2.211730083E0,6.600639224E-2,6.333271414E-2,-2.252882242E0
2.221784083E0,3.682272732E-1,1.556833982E-1,-2.479855776E0
2.231838083E0,8.403684497E-1,4.135745764E-1,-2.813764334E0
2.241893083E0,1.228977323E0,1.005368590E0,-2.462521076E0
2.251947083E0,1.174651027E0,1.165086031E0,-1.869550467E0
2.262001083E0,6.921008825E-1,4.710734785E-1,-1.091836333E0
2.272055083E0,2.550050318E-1,-7.405190170E-2,-5.568749309E-1
2.282109083E0,8.523636311E-2,-1.766757369E-1,-6.054885983E-1
2.292163083E0,2.614710629E-1,-1.879743300E-2,-6.766306758E-1
2.302218083E0,5.098385215E-1,2.774028480E-1,-7.177954912E-1
2.312272083E0,7.283021212E-1,3.036243320E-1,-8.637726307E-1
2.322326083E0,8.457245231E-1,1.565947682E-1,-9.845539927E-1
2.332380083E0,8.957318068E-1,8.203400373E-1,-1.052443624E0
2.342434083E0,5.930805802E-1,8.344628215E-1,-7.714638710E-1
2.352488083E0,5.781668425E-1,1.379534125E0,-5.830830932E-1
2.362542083E0,2.724785209E-1,8.943816423E-1,-6.243646145E-1
2.372597083E0,2.168253809E-1,4.490033686E-1,-9.003785849E-1
2.382651083E0,2.278009951E-1,4.492778480E-1,-1.060059190E0
2.392705083E0,4.140355587E-1,4.272748232E-1,-9.986613989E-1
2.402759083E0,6.382474303E-1,9.385553598E-1,-1.031193495E0
2.412813083E0,7.824993730E-1,1.624500036E0,-1.487068892E0
2.422867083E0,8.938072920E-1,1.816620111E0,-1.818285465E0
2.432922083E0,8.241001368E-1,1.437071919E0,-1.998353720E0
2.442976083E0,5.985726118E-1,9.328289032E-1,-1.947954059E0
2.453030083E0,3.421365619E-1,1.031415224E0,-1.644343019E0
2.463084083E0,1.090122387E-1,1.309264541E0,-1.235972881E0
2.473138083E0,-5.721215531E-2,1.337350249E0,-8.768000603E-1
2.483192083E0,-1.814701706E-1,7.559939623E-1,-6.664409637E-1
2.493246083E0,-3.464604616E-1,-2.116534114E-1,-4.266720116E-1
2.503301083E0,-2.338758856E-1,-3.340658247E-1,-3.193477094E-1
2.513355083E0,-1.255832314E-1,-3.640713990E-1,3.103772923E-2
2.523409083E0,-1.290226132E-1,-5.981777906E-1,1.799080819E-1
2.533463083E0,-1.644522399E-1,-1.088116407E0,3.089701831E-1
2.543517083E0,-1.957990676E-1,-1.634449601E0,4.526196122E-1
2.553571083E0,-1.924597174E-1,-2.001162052E0,5.750128627E-1
2.563626083E0,-1.969968155E-2,-1.903711081E0,6.302723885E-1
2.573680083E0,2.585979998E-1,-1.683456779E0,5.459710956E-1
2.583734083E0,4.120507836E-1,-1.321644545E0,3.160936832E-1
2.593788083E0,4.160985351E-1,-8.073210120E-1,1.024450511E-1
2.603842083E0,2.602323294E-1,-6.445813179E-1,-9.452956915E-2
2.613896083E0,2.772773243E-2,-6.508341432E-1,-1.598899364E-1
2.623950083E0,-1.166972369E-1,-3.848831356E-1,-5.094483867E-2
2.634005083E0,-7.280141860E-2,4.983158037E-2,-5.413051322E-2
2.644059083E0,1.892991066E-1,7.173264027E-1,-3.202084005E-1
2.654113083E0,4.340580106E-1,8.910965919E-1,-5.897583961E-1
2.664167083E0,5.158721805E-1,8.466389179E-1,-9.560186863E-1
2.674221083E0,4.587532282E-1,9.250338078E-1,-1.102734566E0
2.684275083E0,3.878690302E-1,9.771087170E-1,-9.396048188E-1
2.694330083E0,1.920843422E-1,7.141423821E-1,-6.372574568E-1
2.704384083E0,-1.675619036E-1,1.507952809E-1,-3.925195336E-1
2.714438083E0,-3.832840919E-1,6.853102148E-2,-6.346650124E-1
2.724492083E0,-1.490100175E-1,1.062353730E0,-1.448779464E0
2.734546083E0,1.233458742E-1,1.747375488E0,-2.271793604E0
2.744599875E0,1.649746597E-1,1.455531836E0,-2.924358845E0
2.754653875E0,7.014987618E-2,8.888477087E-1,-3.433322668E0
2.764708875E0,-5.938850716E-2,6.243448853E-1,-3.646833658E0
2.774762875E0,1.041895002E-1,2.055402756E0,-3.528636456E0
2.784816875E0,-1.080980375E-1,2.845632792E0,-3.631749868E0
2.794870875E0,-4.621517360E-1,1.219111562E0,-3.088471174E0
2.804924875E0,-5.567250252E-1,-4.135872424E-1,-2.372202396E0
2.814978875E0,-4.757543206E-1,-5.192816854E-1,-1.985350490E0
2.825033875E0,-3.506411910E-1,1.358756870E-1,-1.597594619E0
2.835087875E0,-2.049649358E-1,6.909453273E-1,-1.283552051E0
2.845141875E0,-9.371847659E-2,8.774718642E-1,-9.459186196E-1
2.855195875E0,-5.204533413E-2,6.242449284E-1,-5.687883496E-1
2.865249875E0,-5.549543723E-2,3.474769294E-1,-3.295573592E-1
2.875303875E0,-1.097924933E-1,1.237348989E-1,-1.436780393E-1
2.885357875E0,-8.586984873E-2,-9.276089817E-2,9.750767052E-2
2.895412875E0,-6.010323018E-2,-1.834018528E-1,-4.597146437E-2
2.905466875E0,-1.113014072E-1,-2.452093810E-1,-1.365574896E-1
2.915520875E0,-2.195716798E-1,-6.194064021E-1,7.341519743E-2
2.925574875E0,-3.510284424E-1,-1.059097290E0,2.212766707E-1
2.935628875E0,-4.468401968E-1,-1.153783917E0,2.184760869E-1
2.945682875E0,-4.478968084E-1,-1.008150101E0,1.755608618E-1
2.955737875E0,-3.880622387E-1,-8.125842214E-1,1.017992869E-1
2.965791875E0,-3.589331508E-1,-6.850390434E-1,5.186603218E-2
2.975845875E0,-4.184622467E-1,-7.140485644E-1,4.669231176E-2
2.985899875E0,-4.940635860E-1,-7.712694407E-1,3.546831384E-2
2.995953875E0,-5.029713511E-1,-6.761993766E-1,-3.380956128E-2
3.006007875E0,-3.948929608E-1,-3.255219460E-1,-8.027996123E-2
3.016061875E0,-2.314145714E-1,-2.751154825E-2,-7.629293948E-2
3.026116875E0,-1.667387635E-1,-3.243544698E-2,-8.680416644E-2
3.036170875E0,-1.380101740E-1,-1.894349158E-1,3.729034960E-2
3.046224875E0,-1.583685428E-1,-4.047302902E-1,2.210253775E-1
3.056278875E0,-1.718822271E-1,-5.822659135E-1,4.214146435E-1
3.066332875E0,2.685998380E-1,8.448624611E-2,4.759687483E-1
3.076386875E0,1.225639224E0,1.708174348E0,1.880275011E-1
3.086441875E0,1.508966446E0,2.358970881E0,-1.023606360E-1
3.096495875E0,1.155977249E0,1.760659814E0,-1.648562402E-1
3.106549875E0,5.256876945E-1,3.493651450E-1,-5.364672095E-2
3.116603875E0,3.527240083E-2,-6.285441518E-1,2.048327774E-1
3.126657875E0,-1.865488440E-1,-8.457621336E-1,3.334935009E-1
3.136711875E0,-2.365286499E-1,-7.132863998E-1,2.230457962E-1
3.146765875E0,-1.884229034E-1,-4.660320878E-1,4.512824118E-2
3.156820875E0,-6.232196838E-2,-2.099015117E-1,-7.932687551E-2
3.166874875E0,-2.173271962E-3,-8.006630093E-2,-1.456395835E-1
3.176928875E0,-1.631598920E-2,-1.347015798E-1,-1.404546648E-1
3.186982875E0,-7.329792529E-2,-2.930888832E-1,-9.383440763E-2
3.197036875E0,-1.519019306E-1,-3.957454860E-1,-3.040403686E-2
3.207090875E0,-1.645765901E-1,-3.713788390E-1,1.742496900E-2
3.217145875E0,-8.167557418E-2,-1.781934053E-1,2.302932553E-2
3.227199875E0,3.210053220E-2,9.474227577E-2,2.637744695E-2
3.237253875E0,6.832272559E-2,1.438759863E-1,3.959790990E-2
3.247307875E0,5.788916349E-2,2.863982134E-2,1.976832598E-1
3.257361875E0,-3.874630481E-2,-2.487789989E-1,6.102433801E-1
3.267415875E0,4.891002551E-2,-4.666580260E-1,8.609336019E-1
3.277469875E0,2.092150152E-1,-5.115634203E-1,2.220945507E-1
3.287524875E0,6.865622848E-2,-5.340432525E-1,1.106666550E-1
3.297578875E0,1.030130964E-2,-4.895154834E-1,3.779475987E-1
3.307632875E0,-2.013870329E-2,-3.107881844E-1,1.600050181E-1
3.317686875E0,2.734093368E-2,-1.883613467E-1,1.058552265E-1
3.327740875E0,9.444403648E-2,-2.297015637E-1,8.758643270E-2
3.337794875E0,1.058122739E-1,-3.411250114E-1,5.213949457E-2
