"Time (s)","X (m/s^2)","Y (m/s^2)","Z (m/s^2)"
7.249500020E-3,-4.212839355E0,5.651497650E0,7.266040192E0
1.727850002E-2,-4.370611267E0,5.758225708E0,7.338040466E0
2.730650001E-2,-4.550537109E0,5.889802094E0,7.375312958E0
3.733550000E-2,-4.612807617E0,5.880521393E0,7.405101013E0
4.736349999E-2,-4.612657928E0,5.825435944E0,7.424710236E0
5.739249999E-2,-4.638404388E0,5.811365204E0,7.359745331E0
6.742049998E-2,-4.651277618E0,5.776637421E0,7.233857117E0
7.744850009E-2,-4.645439758E0,5.672753448E0,7.156318359E0
8.747750008E-2,-4.613556061E0,5.527705078E0,7.088060303E0
9.750495839E-2,-4.537364502E0,5.375771027E0,7.081923065E0
1.075339584E-1,-4.427492981E0,5.257966003E0,7.135511627E0
1.175619584E-1,-4.292773132E0,5.107977905E0,7.174879761E0
1.275909584E-1,-4.173171844E0,4.959037628E0,7.276967468E0
1.376189584E-1,-4.117936707E0,4.887486420E0,7.463778992E0
1.476469584E-1,-3.970343628E0,4.751119995E0,7.467072144E0
1.576759584E-1,-3.702700195E0,4.490960999E0,7.452702026E0
1.677039583E-1,-3.337160339E0,4.254452820E0,7.707172852E0
1.777329583E-1,-2.919379120E0,4.081861725E0,7.799530792E0
1.877609583E-1,-2.637515259E0,4.026476898E0,7.822433167E0
1.977899583E-1,-2.486179962E0,4.039649506E0,7.907007294E0
2.078179583E-1,-2.383942566E0,4.062851257E0,8.009095001E0
2.178459583E-1,-2.264041901E0,4.076173553E0,8.202642517E0
2.278749583E-1,-2.121238861E0,4.043242035E0,8.402177582E0
2.379029584E-1,-1.943109283E0,3.918551331E0,8.520281982E0
2.479319584E-1,-1.753902740E0,3.745960236E0,8.578959961E0
2.579599584E-1,-1.485660553E0,3.588487701E0,8.837023315E0
2.679889584E-1,-1.207239532E0,3.431015167E0,9.078171844E0
2.780169584E-1,-9.355545044E-1,3.253484344E0,9.290729828E0
2.880449584E-1,-5.204676819E-1,3.012186127E0,9.356143799E0
2.980739584E-1,-1.959425354E-1,2.819087677E0,9.562863922E0
3.081019584E-1,4.400848389E-2,2.699187012E0,9.832752686E0
3.181309584E-1,1.538800049E-1,2.533930664E0,9.990225220E0
3.281589583E-1,7.274871826E-2,2.344724121E0,1.021296204E1
3.381879583E-1,-1.194515991E-1,2.171085205E0,1.074705139E1
3.482159583E-1,-1.202000427E-1,2.109563141E0,1.061727127E1
3.582439583E-1,-3.652404785E-2,1.963167572E0,1.063089294E1
3.682729583E-1,1.601669312E-1,1.658700714E0,1.075513458E1
3.783009583E-1,3.933819580E-1,1.648821259E0,1.035351974E1
3.883299583E-1,5.649252319E-1,1.544637909E0,1.020936951E1
3.983579584E-1,-3.981719971E-1,8.497828674E-1,7.207212524E0
4.083869584E-1,4.546046448E-1,1.730251923E0,4.723277893E0
4.184149584E-1,1.555415497E0,2.193987579E0,8.872948608E0
4.284429584E-1,1.591789856E0,2.234403534E0,1.457084976E1
4.384719584E-1,8.660989380E-1,1.190324707E0,1.296034882E1
4.484999584E-1,2.125579834E-2,4.312532043E-1,8.099057922E0
4.585289584E-1,-2.309696960E-1,7.333250427E-1,7.284601593E0
4.685569584E-1,-8.681945801E-2,8.208929443E-1,8.911268921E0
4.785859584E-1,3.323089600E-2,3.785627747E-1,1.036938675E1
4.886139584E-1,-8.083190918E-3,-2.683918762E-1,1.048509613E1
4.986419583E-1,-7.110214233E-2,-6.391708374E-1,1.008812164E1
5.086709583E-1,-9.235794067E-2,-6.309379578E-1,9.945617981E0
5.186989583E-1,-1.149609375E-1,-4.510121155E-1,9.980944519E0
5.287279583E-1,-3.222798157E-1,-2.266287231E-1,9.716594238E0
5.387559583E-1,-4.513114929E-1,-9.101074219E-2,9.228459320E0
5.487849583E-1,-5.023553467E-1,-1.143621826E-1,9.261690216E0
5.588129584E-1,-5.263055420E-1,-2.754272461E-1,9.698182526E0
5.688409584E-1,-6.074368286E-1,-3.594026184E-1,9.501192169E0
5.788699584E-1,-7.732919312E-1,-3.474275208E-1,8.076903992E0
5.888979584E-1,-8.656498718E-1,-2.769241333E-1,8.759634247E0
5.989269584E-1,-9.391470337E-1,-2.848576355E-1,9.793234863E0
6.089549584E-1,-9.681866455E-1,-3.745211792E-1,1.037432648E1
6.189839584E-1,-9.780661011E-1,-4.719685364E-1,1.083491867E1
6.290119584E-1,-9.668394470E-1,-4.568499756E-1,1.102966370E1
6.390399584E-1,-8.069718933E-1,-3.861968994E-1,1.097667389E1
6.490689584E-1,-6.569837952E-1,-2.689906311E-1,1.090886490E1
6.590969583E-1,-5.939648438E-1,-1.043330383E-1,1.093970078E1
6.691259583E-1,-6.258485413E-1,1.594184875E-1,1.085662354E1
6.791539583E-1,-6.286926270E-1,4.787045288E-1,1.084599564E1
6.891829583E-1,-7.035369873E-1,7.541317749E-1,1.077474380E1
6.992109583E-1,-7.653584290E-1,9.424401855E-1,1.057925034E1
7.092389583E-1,-6.620732117E-1,1.065484314E0,1.055260574E1
7.192679583E-1,-3.863465881E-1,1.157393188E0,1.073941727E1
7.292959584E-1,-4.026626587E-2,1.217867432E0,1.088910599E1
7.393249584E-1,2.272274780E-1,1.331780548E0,1.089793762E1
7.493529584E-1,3.638932800E-1,1.499132538E0,1.088491470E1
7.593819584E-1,3.956272888E-1,1.663341064E0,1.081276474E1
7.694099584E-1,4.037104797E-1,1.732197876E0,1.073028625E1
7.794379584E-1,3.564088440E-1,1.713636475E0,1.067999084E1
7.894669584E-1,2.962339783E-1,1.618883514E0,1.066861450E1
7.994949584E-1,2.704875183E-1,1.456620941E0,1.060888870E1
8.095239584E-1,2.829116821E-1,1.253193970E0,1.049497559E1
8.195519584E-1,2.734812927E-1,1.018482056E0,1.038929535E1
8.295809584E-1,2.621049500E-1,7.961943054E-1,1.023960663E1
8.396089583E-1,2.862048340E-1,5.867797852E-1,1.000878662E1
8.496369583E-1,3.121009827E-1,4.150868225E-1,9.743837585E0
8.596659583E-1,3.436853027E-1,2.724334717E-1,9.467661896E0
8.696939583E-1,3.540138245E-1,1.799258423E-1,9.205856323E0
8.797229583E-1,3.620970154E-1,1.691482544E-1,9.032516785E0
8.897509584E-1,4.034111023E-1,2.174977112E-1,8.882229309E0
8.997789584E-1,4.318519592E-1,3.195854187E-1,8.761280823E0
9.098079584E-1,4.788542175E-1,4.357438660E-1,8.668473816E0
9.198359584E-1,5.848338318E-1,5.315446472E-1,8.668623505E0
9.298649584E-1,6.595285034E-1,6.005511475E-1,8.661139069E0
9.398929584E-1,6.821315002E-1,6.695576477E-1,8.611442413E0
9.499219584E-1,6.921606445E-1,7.493417358E-1,8.555309143E0
9.599499584E-1,6.770420837E-1,8.226892090E-1,8.464747467E0
9.699779584E-1,6.239025879E-1,9.171427917E-1,8.340805206E0
9.800069584E-1,5.658233643E-1,1.000070343E0,8.275540924E0
9.900349583E-1,5.351371765E-1,1.053060150E0,8.236172791E0
1.000063958E0,5.186714172E-1,1.081650696E0,8.206235046E0
1.010091958E0,4.519102478E-1,1.126557312E0,8.214467926E0
1.020120958E0,3.733236694E-1,1.231938171E0,8.323291626E0
1.030148958E0,2.627037048E-1,1.400936737E0,8.518036652E0
1.040176958E0,2.130070496E-1,1.593286743E0,8.640631714E0
1.050205958E0,1.567240906E-1,1.742676086E0,8.667575684E0
1.060233958E0,1.231938171E-1,1.838177490E0,8.737031250E0
1.070262958E0,1.032852173E-1,1.906435547E0,8.904981995E0
1.080290958E0,8.936416626E-2,2.000889130E0,9.157506866E0
1.090319583E0,9.684860229E-2,2.132016449E0,9.463620300E0
1.100347583E0,1.314266968E-1,2.284549255E0,9.709409180E0
1.110375583E0,2.038760376E-1,2.471660156E0,9.931397552E0
1.120404583E0,2.778222656E-1,2.660866699E0,1.020457947E1
1.130432583E0,3.490740967E-1,2.819985809E0,1.044572800E1
1.140461583E0,5.272036743E-1,2.925366669E0,1.066936295E1
1.150489583E0,7.381150818E-1,2.944077759E0,1.086380859E1
1.160518583E0,9.360035706E-1,2.931054840E0,1.100331848E1
1.170546583E0,1.106948090E0,2.872975616E0,1.107965973E1
1.180574583E0,1.210832062E0,2.789449310E0,1.113055389E1
1.190603583E0,1.253044281E0,2.710713043E0,1.115884506E1
1.200631583E0,1.238374786E0,2.665656738E0,1.113579300E1
1.210660583E0,1.193767548E0,2.704875183E0,1.102696930E1
1.220688583E0,1.132095795E0,2.788700867E0,1.089733887E1
1.230717583E0,1.079105988E0,2.882256317E0,1.078941330E1
1.240745583E0,1.035396881E0,2.910846863E0,1.074300980E1
1.250773583E0,9.827064514E-1,2.861000519E0,1.069510941E1
1.260802583E0,8.547225952E-1,2.768492889E0,1.053479279E1
1.270830583E0,6.668632507E-1,2.724185028E0,1.027762756E1
1.280859583E0,4.881349182E-1,2.820285187E0,1.004980133E1
1.290887583E0,3.820056152E-1,3.049907684E0,1.000025436E1
1.300915583E0,2.980302429E-1,3.378773804E0,9.994865570E0
1.310944583E0,2.022294617E-1,3.739074554E0,9.818232880E0
1.320972583E0,1.787283325E-1,3.965403900E0,9.474248199E0
1.331001583E0,2.020797729E-1,4.028422852E0,9.068741455E0
1.341029583E0,1.793270874E-1,3.946692810E0,8.740324402E0
1.351058583E0,2.365081787E-1,3.819457397E0,8.717721405E0
1.361086583E0,4.426295471E-1,3.622616730E0,9.150022430E0
1.371114583E0,5.739065552E-1,3.493884430E0,9.910441132E0
1.381143583E0,5.810916138E-1,3.478017426E0,1.067355423E1
1.391171583E0,5.369334412E-1,3.568429413E0,1.123294098E1
1.401200583E0,4.739144897E-1,3.718417511E0,1.146959885E1
1.411228583E0,3.897894287E-1,3.863316193E0,1.141122025E1
1.421257583E0,2.812651062E-1,3.934268646E0,1.127066254E1
1.431285583E0,1.850152588E-1,3.918251953E0,1.110540619E1
1.441313583E0,1.721420288E-1,3.784579926E0,1.087234085E1
1.451342583E0,1.896556091E-1,3.601061554E0,1.043075912E1
1.461370583E0,1.688488770E-1,3.488046570E0,9.788444824E0
1.471399583E0,3.237767029E-1,3.218906250E0,9.203161926E0
1.481427583E0,6.045927429E-1,2.776426392E0,8.801247711E0
1.491455583E0,8.993298340E-1,2.389181671E0,8.657546539E0
1.501484583E0,1.147513733E0,2.154769135E0,8.813073120E0
1.511512583E0,1.286125488E0,2.155667267E0,9.167086945E0
1.521541583E0,1.266665955E0,2.317480774E0,9.471703491E0
1.531569583E0,1.138083344E0,2.492167511E0,9.625284119E0
1.541598583E0,1.012344818E0,2.596201172E0,9.637558594E0
1.551626583E0,9.151968384E-1,2.581681366E0,9.509275360E0
1.561654583E0,9.069639587E-1,2.437082062E0,9.288484497E0
1.571683583E0,1.003064117E0,2.233954468E0,9.062604218E0
1.581711583E0,1.249751129E0,2.041305084E0,8.896749115E0
1.591740583E0,1.628912659E0,1.794169006E0,8.789721680E0
1.601768583E0,1.919159088E0,1.544338531E0,8.753497009E0
1.611797583E0,1.955084381E0,1.417552185E0,8.724756775E0
1.621825583E0,1.765578461E0,1.457968140E0,8.671467590E0
1.631853583E0,1.513951721E0,1.609153748E0,8.706644440E0
1.641882583E0,1.202150116E0,1.840722198E0,8.921447754E0
1.651910583E0,8.863069153E-1,2.114802246E0,9.228159943E0
1.661939583E0,6.867718506E-1,2.264640656E0,9.456884308E0
1.671967583E0,6.590794373E-1,2.204914856E0,9.533824310E0
1.681995583E0,6.149212646E-1,2.090552673E0,9.448501740E0
1.692024583E0,5.601351929E-1,2.000140686E0,9.213640137E0
1.702052583E0,6.192622375E-1,1.917362823E0,8.962013397E0
1.712081583E0,6.890171814E-1,1.836979980E0,8.789272614E0
1.722109583E0,7.912545776E-1,1.729952545E0,8.744365997E0
1.732138583E0,1.070274353E0,1.598076782E0,8.922495575E0
1.742166583E0,1.371597748E0,1.513053589E0,9.301058350E0
1.752194583E0,1.464105377E0,1.541793823E0,9.610464935E0
1.762223583E0,1.461410980E0,1.574725342E0,9.721833344E0
1.772251583E0,1.342408447E0,1.586999817E0,9.642348633E0
1.782280583E0,1.122216339E0,1.598974915E0,9.482630768E0
1.792308583E0,9.475296021E-1,1.625918884E0,9.433682556E0
1.802337583E0,8.713380432E-1,1.654060364E0,9.565708008E0
1.812365583E0,7.917036438E-1,1.639839935E0,9.690847778E0
1.822393583E0,8.405021667E-1,1.492546234E0,9.906848602E0
1.832422583E0,9.981243896E-1,1.215023346E0,1.020413040E1
1.842450583E0,1.107696533E0,9.560618591E-1,1.036699173E1
1.852479583E0,1.150806885E0,8.062234497E-1,1.034558624E1
1.862507583E0,1.238225098E0,7.867639160E-1,1.023302032E1
1.872535583E0,1.446442108E0,8.660989380E-1,1.014844620E1
1.882564583E0,1.653910675E0,9.744735718E-1,1.010099487E1
1.892592583E0,1.736538849E0,1.048569489E0,1.003707779E1
1.902621583E0,1.705553284E0,1.102307739E0,9.893825684E0
1.912649583E0,1.597478027E0,1.179247742E0,9.720935211E0
1.922678583E0,1.462309113E0,1.276844788E0,9.562714233E0
1.932706583E0,1.390159149E0,1.346300354E0,9.477092285E0
1.942734583E0,1.373244324E0,1.323547668E0,9.470805359E0
1.952763583E0,1.247356110E0,1.271905060E0,9.468560028E0
1.962791583E0,1.076710968E0,1.244811401E0,9.476194153E0
1.972820583E0,9.409432983E-1,1.313518524E0,9.518406372E0
1.982848583E0,8.842112732E-1,1.417103119E0,9.580826569E0
1.992876583E0,8.476872253E-1,1.470691681E0,9.630523224E0
2.002905583E0,7.981402588E-1,1.485660553E0,9.669891357E0
2.012933583E0,7.780819702E-1,1.497635651E0,9.758207703E0
2.022962583E0,7.161108398E-1,1.547332306E0,9.774823151E0
2.032990583E0,6.557862854E-1,1.576970673E0,9.754615173E0
2.043019583E0,6.258485413E-1,1.628164215E0,9.812694397E0
2.053047583E0,5.209167480E-1,1.695374451E0,9.819729767E0
2.063075583E0,3.740721130E-1,1.759890289E0,9.764943695E0
2.073104583E0,2.906954956E-1,1.818867645E0,9.662855988E0
2.083132583E0,2.541714478E-1,1.806293793E0,9.564061432E0
2.093166250E0,2.222877502E-1,1.741029510E0,9.445358276E0
2.103194250E0,1.802252197E-1,1.654060364E0,9.357790375E0
2.113223250E0,1.625619507E-1,1.613345032E0,9.344019012E0
2.123251250E0,1.579216003E-1,1.594783630E0,9.327702942E0
2.133279250E0,1.501377869E-1,1.621278534E0,9.321116638E0
2.143308250E0,1.564247131E-1,1.675016785E0,9.370064850E0
2.153336250E0,1.160087585E-1,1.756297760E0,9.461524658E0
2.163365250E0,3.472778320E-2,1.809586945E0,9.571994934E0
2.173393250E0,3.068618774E-2,1.820963287E0,9.653126221E0
2.183421250E0,1.496887207E-4,1.847009125E0,9.676028595E0
2.193450250E0,-4.400848389E-2,1.827549591E0,9.612710266E0
2.203478250E0,-3.562591553E-2,1.777852936E0,9.522597656E0
2.213507250E0,-2.829116821E-2,1.726360016E0,9.476343842E0
2.223535250E0,-5.089416504E-3,1.687590637E0,9.455986176E0
2.233563250E0,3.278182983E-2,1.667831726E0,9.475296021E0
2.243592250E0,1.407073975E-2,1.689686279E0,9.581874390E0
2.253620250E0,1.107696533E-2,1.692979431E0,9.705816650E0
2.263649250E0,2.963836670E-2,1.672472076E0,9.735305328E0
2.273677250E0,2.170486450E-2,1.660347290E0,9.697134705E0
2.283706250E0,1.197509766E-2,1.621428223E0,9.621392212E0
2.293734250E0,-7.035369873E-3,1.571881256E0,9.536967773E0
2.303762250E0,4.939727783E-3,1.592388611E0,9.547146606E0
2.313791250E0,-4.266128540E-2,1.714534607E0,9.596244507E0
2.323819250E0,-1.234931946E-1,1.844015350E0,9.591155090E0
2.333848250E0,-1.709445190E-1,1.931732941E0,9.611961823E0
2.343876250E0,-2.659968567E-1,1.960772552E0,9.592502289E0
2.353904250E0,-3.929328918E-1,1.913919983E0,9.559421082E0
2.363933250E0,-4.505630493E-1,1.807940369E0,9.528136139E0
2.373961250E0,-4.366419983E-1,1.705702972E0,9.563163300E0
2.383990250E0,-3.317102051E-1,1.646126862E0,9.657167816E0
2.394018250E0,-2.535726929E-1,1.611698456E0,9.717192993E0
2.404047250E0,-2.146536255E-1,1.603914642E0,9.797725525E0
2.414075250E0,-2.001338196E-1,1.611399078E0,9.919871521E0
2.424103250E0,-2.137554932E-1,1.617087250E0,1.001267853E1
2.434132250E0,-2.073188782E-1,1.620230713E0,1.008452911E1
2.444160250E0,-1.588197327E-1,1.622176666E0,1.005698639E1
2.454189250E0,-1.384620667E-1,1.610351257E0,9.890532532E0
2.464217250E0,-1.161584473E-1,1.600022736E0,9.725126495E0
2.474245250E0,-7.888595581E-2,1.589993591E0,9.616901550E0
2.484274250E0,-4.790039063E-2,1.588197327E0,9.563163300E0
2.494302250E0,-1.197509766E-3,1.569486237E0,9.531878357E0
2.504331250E0,1.302291870E-2,1.565594330E0,9.500144348E0
2.514359250E0,-2.409988403E-2,1.585353241E0,9.484127655E0
2.524388250E0,-7.918533325E-2,1.613943787E0,9.494605865E0
2.534416250E0,-1.302291870E-1,1.624122620E0,9.544751587E0
2.544444250E0,-1.983375549E-1,1.652862854E0,9.610764313E0
2.554473250E0,-2.826123047E-1,1.669478302E0,9.703421631E0
2.564501250E0,-3.703298950E-1,1.676513672E0,9.734856262E0
2.574530250E0,-4.080514526E-1,1.705104218E0,9.705367584E0
2.584558250E0,-4.001179504E-1,1.699416046E0,9.624236298E0
2.594586250E0,-3.902384949E-1,1.697170715E0,9.508975983E0
2.604615250E0,-3.974235535E-1,1.776356049E0,9.481732635E0
2.614643250E0,-6.637197876E-1,4.593048706E0,1.115091156E1
2.624672250E0,-4.037104797E-1,4.618046722E0,1.241069183E1
2.634700250E0,3.558100891E-1,4.017046509E0,1.139610168E1
2.644728250E0,1.541943512E0,1.706451416E-1,9.170529785E0
2.654757250E0,6.265969849E-1,-1.135388947E0,1.333082840E1
2.664785250E0,-9.211843872E-1,3.823049927E-1,1.171224426E1
2.674814250E0,-1.259031830E0,7.828720093E-2,9.754166107E0
2.684842250E0,-1.556463318E0,-1.520837402E-1,9.930349731E0
2.694871250E0,-1.486558685E0,-1.131646729E-1,1.092098969E1
2.704899250E0,-1.564696198E0,8.110134888E-1,1.210218338E1
2.714927250E0,-1.478625183E0,1.541195068E0,1.246682510E1
2.724956250E0,-1.234632568E0,1.597777405E0,1.205518112E1
2.734984250E0,-1.113384705E0,1.350341949E0,1.168889282E1
2.745013250E0,-1.122665405E0,1.392703857E0,1.119521942E1
2.755041250E0,-1.050814819E0,1.343755646E0,1.152468430E1
2.765069250E0,-7.770341492E-1,1.484463043E0,1.144475052E1
2.775098250E0,-2.694396973E-2,1.495390320E0,1.112935638E1
2.785126250E0,6.887178040E-1,1.460363159E0,1.077833633E1
2.795155250E0,9.409432983E-1,1.431622925E0,1.018946091E1
2.805183250E0,7.131170654E-1,1.582808533E0,9.579629059E0
2.815212250E0,1.254391479E-1,2.163002014E0,8.868907013E0
2.825240250E0,-2.975811768E-1,2.514321442E0,8.823701019E0
2.835268250E0,-3.314108276E-1,2.484683075E0,8.697812805E0
2.845297250E0,-2.389031982E-1,2.333497467E0,8.354127502E0
2.855325250E0,6.027964783E-1,2.508483582E0,8.405919800E0
2.865354250E0,2.302212524E-1,3.246598663E0,9.222920837E0
2.875382250E0,1.326541443E0,2.674039307E0,9.878108368E0
2.885410250E0,2.392774200E0,2.014361115E0,1.027942383E1
2.895439250E0,2.962339783E0,1.491797791E0,1.113728989E1
2.905467250E0,2.735411682E0,1.425036621E0,1.163605270E1
2.915496250E0,1.928589478E0,1.766476593E0,1.160940811E1
2.925524250E0,8.675958252E-1,2.227068787E0,1.113938553E1
2.935552250E0,-5.194198608E-2,2.316432953E0,1.019963974E1
2.945581250E0,-6.042933655E-1,1.985620880E0,9.380093994E0
2.955609250E0,-7.247927856E-1,1.714235229E0,8.618627472E0
2.965638250E0,-4.089495850E-1,1.531614990E0,8.562344513E0
2.975666250E0,1.056802368E-1,1.013692017E0,8.824449463E0
2.985695250E0,7.129673767E-1,2.531236267E-1,8.875343628E0
2.995723250E0,9.744735718E-1,-2.380050659E-2,8.623118134E0
3.005751250E0,8.526269531E-1,1.297801208E-1,8.045768738E0
3.015780250E0,6.674620056E-1,5.963598633E-1,7.900870056E0
3.025808250E0,5.146298218E-1,7.345225525E-1,8.044421539E0
3.035837250E0,2.465373230E-1,1.222657471E0,7.890242157E0
3.045865250E0,1.055305481E-1,2.168839874E0,7.800279236E0
3.055893250E0,4.692741394E-1,3.176544342E0,8.141270142E0
3.065922250E0,1.247655487E0,4.224964142E0,8.361611938E0
3.075950250E0,1.660047913E0,4.874912567E0,8.324339447E0
3.085979250E0,1.863325195E0,4.751868439E0,7.916587372E0
3.096006208E0,2.164947968E0,3.664978638E0,7.687863007E0
3.106034208E0,1.926344147E0,2.401306458E0,7.934999084E0
3.116063208E0,8.819659424E-1,1.829495544E0,7.557633820E0
3.126091208E0,-5.360353088E-1,1.777254181E0,6.986271973E0
3.136120208E0,-1.354982300E0,1.940863953E0,7.241341553E0
3.146148208E0,-4.064048767E-1,2.779270477E0,8.468938751E0
3.156176208E0,2.100581818E0,3.539389801E0,9.502539368E0
3.166205208E0,4.471202087E-1,2.830763397E0,8.721014557E0
3.176233208E0,-1.044228516E0,2.757715302E0,7.929460602E0
3.186262208E0,-8.367599487E-2,3.096161499E0,7.408394165E0
3.196290208E0,9.732760620E-1,3.021017761E0,8.276738434E0
3.206319208E0,1.418001251E0,2.825524292E0,9.473050690E0
3.216347208E0,1.769470367E0,3.232378235E0,1.011521530E1
3.226375208E0,1.590891724E0,3.315904541E0,9.840237122E0
3.236404208E0,1.456171875E0,3.159629517E0,9.958191833E0
3.246432208E0,1.546883240E0,3.725003815E0,1.007958939E1
3.256461208E0,1.682052155E0,4.706213379E0,1.017673737E1
3.266489208E0,1.821861420E0,5.425617371E0,8.728798370E0
3.276517208E0,8.205935669E-1,5.569168854E0,6.396947479E0
3.286546208E0,-1.592687988E-1,5.034331055E0,4.906796265E0
3.296574208E0,6.747967529E-1,4.470753021E0,4.569098511E0
3.306603208E0,1.110540619E0,4.233646088E0,4.854405212E0
3.316631208E0,1.235830078E0,4.133504333E0,5.940696259E0
3.326659208E0,1.149759064E0,4.434977417E0,7.222630463E0
3.336688208E0,8.517288208E-1,4.699627075E0,8.665629730E0
3.346716208E0,3.606001282E-1,4.386627960E0,1.026146118E1
3.356745208E0,-7.798782349E-2,4.539160767E0,1.095691498E1
3.366773208E0,8.232879639E-2,5.153034210E0,9.189390564E0
3.376801208E0,7.858657837E-2,4.178111572E0,7.328011322E0
3.386830208E0,-1.050814819E-1,2.938539276E0,6.940317535E0
3.396858208E0,1.101708984E-1,3.069067841E0,6.430178375E0
3.406887208E0,8.678952026E-1,3.582350464E0,6.791227570E0
3.416915208E0,1.636696472E0,3.917503510E0,6.794071655E0
3.426944208E0,1.460213470E0,3.911515961E0,6.840774536E0
3.436972208E0,1.862127686E-1,3.919748840E0,4.758754120E0
3.447000208E0,1.325792999E0,3.903582458E0,6.424340515E0
3.457029208E0,2.689906311E-1,3.178190918E0,8.012837219E0
3.467057208E0,-8.955876160E-1,2.245330811E0,8.267008667E0
