"Time (s)","X (rad/s)","Y (rad/s)","Z (rad/s)"
1.020049996E-2,-6.436983496E-2,-6.147803068E-1,4.067650139E-1
2.021950000E-2,-1.634884030E-1,-6.417353153E-1,3.810068667E-1
3.023849998E-2,-2.610333264E-1,-6.849517226E-1,3.395965695E-1
4.025749996E-2,-3.463072777E-1,-7.361447215E-1,2.641498148E-1
5.027650000E-2,-4.193750918E-1,-8.299830556E-1,1.430210024E-1
6.029549998E-2,-4.831677675E-1,-9.685806036E-1,1.110307314E-2
7.031450002E-2,-5.538762808E-1,-1.070730090E0,-1.026000530E-1
8.033349999E-2,-6.329726577E-1,-1.106786728E0,-1.766547412E-1
9.035249997E-2,-6.991292834E-1,-1.080039501E0,-2.199934274E-1
1.003715000E-1,-7.284733057E-1,-1.044126153E0,-2.454504818E-1
1.103905000E-1,-7.405734062E-1,-1.076199412E0,-2.115252763E-1
1.204095000E-1,-7.495499253E-1,-1.150889039E0,-9.064737707E-2
1.304275000E-1,-7.716483474E-1,-1.254997015E0,6.674996763E-2
1.404465000E-1,-8.039116263E-1,-1.356293201E0,1.960651129E-1
1.504655000E-1,-8.402981758E-1,-1.423665047E0,2.260901183E-1
1.604845000E-1,-8.983458281E-1,-1.458381414E0,1.418994516E-1
1.705035000E-1,-9.800774455E-1,-1.473943114E0,-6.126458570E-2
1.805225000E-1,-1.086242080E0,-1.486081362E0,-3.592613637E-1
1.905415000E-1,-1.211287141E0,-1.494075656E0,-6.623322964E-1
2.005605000E-1,-1.298348069E0,-1.543905973E0,-8.831845522E-1
2.105795000E-1,-1.323898077E0,-1.684112906E0,-9.682245851E-1
2.205985000E-1,-1.243172169E0,-1.935893416E0,-8.892901540E-1
2.306175000E-1,-1.050784826E0,-2.217128038E0,-6.840829849E-1
2.406365000E-1,-7.779371738E-1,-2.455730915E0,-4.600731432E-1
2.506555000E-1,-4.591935277E-1,-2.499529600E0,-2.949398458E-1
2.606745000E-1,-9.176051617E-2,-2.375531912E0,-3.128314018E-1
2.706935000E-1,2.388214022E-1,-2.302111864E0,-2.924731374E-1
2.807125000E-1,4.568582773E-1,-2.169272423E0,-2.483515292E-1
2.907315000E-1,5.089116096E-1,-2.090645552E0,-1.980260313E-1
3.007505000E-1,3.616767824E-1,-2.017653465E0,-7.089293748E-2
3.107695000E-1,1.610430032E-1,-1.807783723E0,-2.513424307E-2
3.207885000E-1,-5.302701145E-2,-1.443800092E0,-6.261502951E-2
3.308065000E-1,-3.031575084E-1,-1.278661489E0,5.352836102E-3
3.408255000E-1,-5.103645325E-1,-1.366504788E0,1.970957033E-2
3.508445000E-1,-6.069139838E-1,-1.360477328E0,-7.832058519E-2
3.608635000E-1,-6.072641611E-1,-1.199961901E0,-1.943903565E-1
3.708825000E-1,-5.962546468E-1,-1.009275556E0,-2.512911856E-1
3.809015000E-1,-6.181665063E-1,-8.597022295E-1,-2.289865613E-1
3.909205000E-1,-6.272380352E-1,-7.240405679E-1,-1.647692174E-1
4.009395000E-1,-5.954939127E-1,-5.982682705E-1,-8.250592649E-2
4.109585000E-1,-5.260106921E-1,-5.375572443E-1,-2.537473291E-2
4.209816667E-1,-4.412641823E-1,-5.852532983E-1,-1.595545188E-2
4.310006666E-1,-3.735706210E-1,-7.421369553E-1,-1.080853790E-1
4.410196667E-1,-3.277031779E-1,-8.933325410E-1,-3.024624288E-1
4.510386667E-1,-2.553432286E-1,-9.150649905E-1,-5.256949663E-1
4.610576666E-1,-1.113298237E-1,-7.525666952E-1,-6.603320241E-1
4.710766667E-1,6.267446280E-2,-3.983556628E-1,-6.612055302E-1
4.810956666E-1,1.930191070E-1,5.090243369E-2,-5.661363602E-1
4.911146666E-1,2.392270863E-1,5.080105662E-1,-4.374857545E-1
5.011336667E-1,1.748227328E-1,8.226124644E-1,-3.497000635E-1
5.111526666E-1,2.718160860E-2,1.008446455E0,-2.886684239E-1
5.211716667E-1,-1.441902965E-1,1.116350889E0,-2.393627912E-1
5.311906667E-1,-2.866563797E-1,1.113104224E0,-2.218375951E-1
5.412096666E-1,-3.627361953E-1,9.751188159E-1,-2.253082544E-1
5.512276667E-1,-3.479772210E-1,7.836337686E-1,-2.305589467E-1
5.612466666E-1,-2.445030808E-1,6.746001244E-1,-2.007638812E-1
5.712656666E-1,-1.114534140E-1,6.825853586E-1,-1.619227380E-1
5.812846667E-1,3.300820012E-3,7.579566240E-1,-1.742799282E-1
5.913036666E-1,1.017914414E-1,8.953062296E-1,-2.095337957E-1
6.013226666E-1,2.178951055E-1,1.052744508E0,-2.692190707E-1
6.113416667E-1,3.637984991E-1,1.167348266E0,-3.890943527E-1
6.213606666E-1,5.711832047E-1,1.179735661E0,-5.810402036E-1
6.313796667E-1,8.193421364E-1,1.078298450E0,-5.966335535E-1
6.413986667E-1,1.090323806E0,9.318911433E-1,-5.236194134E-1
6.514176666E-1,1.339043021E0,6.316359639E-1,-4.523665011E-1
6.614366667E-1,1.510245085E0,2.150164992E-1,-4.331498146E-1
6.714556667E-1,1.538633823E0,-1.951944679E-1,-4.573526084E-1
6.814746666E-1,1.376984715E0,-5.922895670E-1,-4.773987830E-1
6.914936667E-1,1.054938793E0,-8.529027700E-1,-4.646806121E-1
7.015126667E-1,6.843799949E-1,-8.505574465E-1,-3.726090491E-1
7.115316666E-1,4.345669150E-1,-5.207313299E-1,-2.152351439E-1
7.215506667E-1,3.312506974E-1,-1.511277109E-1,-6.668656319E-2
7.315696666E-1,2.630900145E-1,-1.680680662E-1,-1.322818100E-1
7.415886666E-1,2.947352827E-1,-5.157729983E-1,-2.943028510E-1
7.516066667E-1,3.512853682E-1,-9.189444184E-1,-4.118057787E-1
7.616256666E-1,3.786879182E-1,-1.103439450E0,-4.486188591E-1
7.716446667E-1,3.025524020E-1,-1.091216683E0,-4.200101197E-1
7.816636667E-1,2.078514993E-1,-8.357016444E-1,-3.234942257E-1
7.916826666E-1,1.275534630E-1,-6.049323678E-1,-2.066621631E-1
8.017016667E-1,5.458242819E-2,-4.972959459E-1,-1.209478825E-1
8.117206667E-1,-5.922536552E-2,-3.661115468E-1,-5.473051220E-2
8.217396666E-1,-1.973353624E-1,-3.393703327E-2,5.046889186E-3
8.317586667E-1,-3.122968376E-1,4.756942391E-1,6.851774454E-2
8.417776666E-1,-3.389645219E-1,8.763043880E-1,1.517128497E-1
8.517966666E-1,-2.033385336E-1,8.518001437E-1,2.104105204E-1
8.618156667E-1,-2.219805680E-2,3.487715125E-1,1.574863493E-1
8.718346666E-1,9.804100543E-2,-2.215420604E-1,3.425175697E-2
8.818536667E-1,9.986668825E-2,-4.901559353E-1,-3.833325207E-2
8.918726667E-1,-9.135163389E-3,-3.993344009E-1,-3.757558763E-2
9.018916666E-1,-1.726067960E-1,-1.732322015E-2,-4.429788794E-3
9.119106667E-1,-3.567366898E-1,4.032913744E-1,5.643649027E-2
9.219296667E-1,-5.025153756E-1,6.578679085E-1,1.349682361E-1
9.319486666E-1,-4.991883039E-1,6.776238084E-1,2.121935040E-1
9.419676667E-1,-3.229137659E-1,4.796051085E-1,2.562174797E-1
9.519866667E-1,1.871360466E-2,1.676099449E-1,2.428982109E-1
9.620056666E-1,3.448708951E-1,-7.369078696E-2,1.712121218E-1
9.720236667E-1,5.383425951E-1,-1.803669035E-1,1.276529282E-1
9.820426666E-1,6.109084487E-1,-2.025337070E-1,1.076709256E-1
9.920616667E-1,5.762279630E-1,-1.643793881E-1,1.087945178E-1
1.002080667E0,4.733280540E-1,-8.344464749E-2,1.391537935E-1
1.012099667E0,3.606893718E-1,-1.335237361E-2,1.893354803E-1
1.022118667E0,2.797220051E-1,1.496925671E-2,2.507168353E-1
1.032137667E0,2.564888597E-1,-9.908129461E-3,2.996140718E-1
1.042156667E0,2.617283762E-1,7.369982451E-2,3.623169959E-1
1.052175667E0,1.910217404E-1,4.831949174E-1,4.065068364E-1
1.062194667E0,1.221442297E-1,1.720132977E-1,3.992193937E-1
1.072213667E0,1.057229117E-1,2.472657114E-1,3.880296052E-1
1.082232667E0,4.304989800E-2,2.312994450E-1,3.633730412E-1
1.092251667E0,-2.279755846E-2,1.529820114E-1,3.434733748E-1
1.102270667E0,-3.575237095E-2,1.542769969E-1,3.364001215E-1
1.112289667E0,4.536460619E-3,1.602688432E-1,3.107813001E-1
1.122308667E0,7.107110322E-2,1.316155940E-1,2.589607835E-1
1.132327667E0,1.360229403E-1,9.674948454E-2,1.996063739E-1
1.142346667E0,1.793358177E-1,1.087795272E-1,1.415908784E-1
1.152365667E0,1.674940586E-1,9.562910348E-2,7.431837171E-2
1.162384667E0,9.487877786E-2,7.453128695E-2,7.029707544E-3
1.172403667E0,-2.241828106E-2,9.078881890E-2,-4.643058777E-2
1.182421667E0,-1.484486163E-1,1.950598359E-1,-5.348223448E-2
1.192440667E0,-2.423836291E-1,3.305161893E-1,-2.511610650E-2
1.202459667E0,-2.863839567E-1,4.137845039E-1,1.909599989E-3
1.212478667E0,-2.777470648E-1,3.994540274E-1,5.338397622E-2
1.222497667E0,-2.017956078E-1,2.341749221E-1,1.347463578E-1
1.232516667E0,-8.255550265E-2,-5.957308039E-2,2.279740423E-1
1.242535667E0,2.088744752E-2,-3.602884114E-1,2.756544054E-1
1.252554667E0,8.747685701E-2,-4.842276573E-1,2.765777409E-1
1.262573667E0,1.147345603E-1,-3.862932324E-1,2.316478342E-1
1.272592667E0,1.177399382E-1,-1.122899204E-1,1.389671713E-1
1.282611667E0,8.954236656E-2,2.427193075E-1,3.827983141E-2
1.292630667E0,1.432377659E-2,5.309356451E-1,-4.912031814E-2
1.302649667E0,-8.529284596E-2,6.672363877E-1,-9.312078357E-2
1.312668667E0,-1.247931123E-1,6.461936831E-1,-1.227226108E-1
1.322687667E0,-7.705149800E-2,2.849192619E-1,-2.650606632E-1
1.332706667E0,-1.470210403E-2,-6.390263885E-2,-4.352140129E-1
1.342725667E0,-4.379882663E-2,-8.162286878E-2,-6.313083172E-1
1.352744667E0,-2.471298277E-1,-2.684678435E-1,-7.926948667E-1
1.362763667E0,-3.722348213E-1,-3.529660404E-1,-7.784976959E-1
1.372782667E0,-5.116022825E-1,-4.291385710E-1,-6.962153316E-1
1.382801667E0,-7.283409834E-1,-4.782888889E-1,-6.232818961E-1
1.392819667E0,-9.811666012E-1,-3.446927369E-1,-5.608353019E-1
1.402838667E0,-1.231562734E0,-1.426106095E-1,-5.122343898E-1
1.412857667E0,-1.435619116E0,1.953169145E-2,-4.600135088E-1
1.422872667E0,-1.532659650E0,5.955470726E-2,-4.148502648E-1
1.432891667E0,-1.498760581E0,-2.437826246E-3,-3.754751682E-1
1.442910667E0,-1.301519156E0,-1.446992159E-1,-3.294600248E-1
1.452929667E0,-9.463000298E-1,-2.820783854E-1,-3.056348562E-1
1.462948667E0,-5.126824379E-1,-3.567198217E-1,-3.151753843E-1
1.472967667E0,-8.439905196E-2,-3.367367983E-1,-3.483293355E-1
1.482986667E0,2.703425288E-1,-2.158468664E-1,-3.589229882E-1
1.493005667E0,4.626603127E-1,-9.800491482E-2,-3.286295235E-1
1.503024667E0,4.642644525E-1,5.946611054E-3,-2.539675236E-1
1.513043667E0,3.259758055E-1,1.338249594E-1,-1.645436138E-1
1.523062667E0,1.290702671E-1,2.986954749E-1,-8.207277954E-2
1.533081667E0,-2.000389993E-2,4.711575210E-1,-1.591373235E-2
1.543100667E0,-7.471528649E-2,5.897036195E-1,5.468863249E-2
1.553119667E0,-1.769780554E-2,5.746319890E-1,1.028875932E-1
1.563138667E0,1.340460181E-1,4.455431402E-1,9.626764059E-2
1.573157667E0,2.895168066E-1,2.397870570E-1,3.302581608E-2
1.583176667E0,3.774873614E-1,4.787985235E-2,-6.090940535E-2
1.593194667E0,3.476679623E-1,-6.351937354E-2,-1.603518426E-1
1.603213667E0,1.748032421E-1,-1.218327507E-1,-2.501323223E-1
1.613232667E0,-9.627272934E-2,-1.302491426E-1,-3.025654256E-1
1.623251667E0,-3.688064814E-1,-6.720504910E-2,-3.010161519E-1
1.633270667E0,-5.872447491E-1,2.824397571E-2,-2.803164721E-1
1.643289667E0,-7.302041650E-1,6.765928119E-2,-2.608635128E-1
1.653308667E0,-7.781423926E-1,1.341011375E-1,-2.347261757E-1
1.663327667E0,-7.398185134E-1,2.241898775E-1,-1.952840984E-1
1.673346667E0,-6.028202176E-1,2.814608812E-1,-1.706522554E-1
1.683365667E0,-3.936711550E-1,2.684012949E-1,-1.907330602E-1
1.693384667E0,2.999224141E-2,-1.266972870E-1,-2.325699776E-1
1.703403667E0,5.127879381E-1,-1.769440025E-1,-2.632204890E-1
1.713422667E0,7.418384552E-1,-2.769659460E-1,-2.652588785E-1
1.723441667E0,6.980660558E-1,-3.686700463E-1,-2.675375938E-1
1.733460667E0,5.270447731E-1,-4.850547314E-1,-2.418085188E-1
1.743479667E0,3.801656067E-1,-5.848950744E-1,-1.859423667E-1
1.753498667E0,3.226757050E-1,-5.622337461E-1,-1.144026667E-1
1.763517667E0,3.343379796E-1,-2.390239686E-1,-8.000878990E-2
1.773536667E0,6.572963595E-1,5.918923616E-1,-2.427263409E-1
1.783555667E0,7.527501583E-1,4.698560238E-1,-3.622340262E-1
1.793574667E0,5.849385262E-1,1.529124528E-1,-3.833822012E-1
1.803593667E0,3.648733497E-1,5.956807733E-2,-2.792373598E-1
1.813611667E0,1.159157380E-1,1.985182427E-2,-1.470817178E-1
1.823630667E0,-5.566877872E-2,-1.017970685E-2,-5.018022284E-2
1.833649667E0,-1.274108738E-1,-6.752235442E-2,-4.241231456E-2
1.843668667E0,-1.525679678E-1,-1.187290326E-1,-9.661128372E-2
1.853687667E0,-1.859229952E-1,-1.101829484E-1,-1.528945416E-1
1.863706667E0,-2.407027632E-1,-4.592277855E-2,-2.179082185E-1
1.873725667E0,-3.081172109E-1,1.451739669E-2,-2.981897593E-1
1.883744667E0,-3.640897572E-1,5.854501575E-2,-3.894397318E-1
1.893763667E0,-3.854845166E-1,6.426202506E-2,-4.530932903E-1
1.903782667E0,-3.576107323E-1,3.900849819E-2,-4.766085148E-1
1.913801667E0,-2.978240848E-1,-1.239796914E-2,-5.192832351E-1
1.923820667E0,-2.103329152E-1,-3.345733508E-2,-5.847615600E-1
1.933839667E0,-1.274590790E-1,2.430503257E-2,-6.738022566E-1
1.943858667E0,-9.020447731E-2,1.267200112E-1,-7.782460451E-1
1.953877667E0,-8.723504841E-2,2.318405658E-1,-8.639444113E-1
1.963896667E0,-1.201499850E-1,3.350515366E-1,-9.102689028E-1
1.973915667E0,-1.673715562E-1,4.048915803E-1,-8.896198273E-1
1.983934667E0,-1.648564935E-1,3.693358600E-1,-8.188871145E-1
1.993953667E0,-4.223629832E-2,2.275222838E-1,-7.115766406E-1
2.003972667E0,1.779742688E-1,5.771330744E-2,-6.498363614E-1
2.013991667E0,4.941804409E-1,-1.080330461E-1,-6.702398658E-1
2.024010667E0,8.895529509E-1,-2.018326223E-1,-8.255614042E-1
2.034028667E0,1.132827640E0,-2.483937293E-1,-8.902152181E-1
2.044047667E0,1.203055263E0,-2.504697442E-1,-9.558137655E-1
2.054066667E0,1.200904012E0,-2.916331589E-1,-9.376254678E-1
2.064085667E0,1.164764047E0,-2.859694064E-1,-8.237280846E-1
2.074104667E0,1.069199443E0,-4.016765654E-1,-7.726925611E-1
2.084123667E0,1.029078841E0,-3.568703830E-1,-8.235797286E-1
2.094142667E0,9.745512009E-1,-2.226228565E-1,-1.187249660E0
2.104161667E0,9.601029754E-1,-1.131865755E-1,-1.652872801E0
2.114180667E0,1.028663397E0,-1.204452887E-1,-2.090148449E0
2.124199667E0,1.066430211E0,-1.444386989E-1,-2.399423361E0
2.134218667E0,1.090241313E0,-9.827440232E-2,-2.555334330E0
2.144237667E0,1.134640574E0,2.069062926E-2,-2.489390135E0
2.154256667E0,1.284903526E0,3.344690427E-2,-2.185367107E0
2.164275667E0,1.515781403E0,-1.314236224E-1,-1.661474347E0
2.174294667E0,1.770805717E0,-5.957095623E-1,-1.223961234E0
2.184313667E0,1.853384733E0,-6.280847788E-1,-9.594661593E-1
2.194332667E0,1.793958187E0,-5.224204063E-1,-8.868103027E-1
2.204351667E0,1.657002330E0,-4.933603108E-1,-1.036463380E0
2.214370667E0,1.169779181E0,-3.887060583E-1,-1.260776639E0
2.224389667E0,4.131693840E-1,-8.949074894E-2,-1.375216246E0
2.234408667E0,-1.358641684E-1,2.162779570E-1,-1.472300410E0
2.244426667E0,-3.214201331E-1,3.629420400E-1,-1.614558816E0
2.254445667E0,-2.857612073E-1,3.886900246E-1,-1.790221214E0
2.264464667E0,-1.816370636E-1,3.738988042E-1,-1.925150752E0
2.274483667E0,-9.413119406E-2,3.843479753E-1,-1.986602187E0
2.284502667E0,-5.988471583E-2,4.516697228E-1,-1.950357795E0
2.294521667E0,-5.124968290E-2,5.641488433E-1,-1.799612999E0
2.304540667E0,-2.714186162E-2,6.598705649E-1,-1.552333474E0
2.314559667E0,7.747945376E-3,7.283867598E-1,-1.244179845E0
2.324578667E0,1.448995993E-2,7.804902792E-1,-9.416043758E-1
2.334597667E0,-3.320538998E-2,8.330717087E-1,-6.755706072E-1
2.344616667E0,-1.002290100E-1,8.802199960E-1,-4.342434704E-1
2.354635667E0,-1.412920207E-1,9.279752374E-1,-2.307856679E-1
2.364654667E0,-1.417527497E-1,9.511343837E-1,-6.495942175E-2
2.374673667E0,-1.169717684E-1,9.578945041E-1,7.016484439E-2
2.384692667E0,-7.529434562E-2,9.533361793E-1,1.916704029E-1
2.394711667E0,-2.549509518E-2,9.301645756E-1,3.013753295E-1
2.404730667E0,1.821838319E-2,9.101876616E-1,4.066623747E-1
2.414749667E0,4.805804044E-2,8.996332884E-1,5.319234133E-1
2.424769250E0,5.303076655E-2,8.894286156E-1,6.937722564E-1
2.434788250E0,3.883585334E-2,8.655331135E-1,8.937940001E-1
2.444807250E0,2.374801598E-2,8.539438844E-1,1.104099035E0
2.454826250E0,1.299177483E-2,8.664327860E-1,1.301944733E0
2.464844250E0,3.317291848E-3,8.701052666E-1,1.474017024E0
2.474863250E0,2.666415181E-3,8.589119911E-1,1.603627443E0
2.484882250E0,-2.748742327E-2,8.397015929E-1,1.653611422E0
2.494901250E0,-8.150325716E-2,8.340370059E-1,1.619982123E0
2.504920250E0,-1.447896659E-1,8.456202149E-1,1.538153648E0
2.514939250E0,-2.031517774E-1,8.502996564E-1,1.435532451E0
2.524958250E0,-2.497655749E-1,8.485180736E-1,1.356296420E0
2.534977250E0,-2.796563506E-1,8.575904369E-1,1.296814680E0
2.544996250E0,-2.987650633E-1,8.804784417E-1,1.264904737E0
2.555015250E0,-3.011283576E-1,8.914504051E-1,1.258794546E0
2.565034250E0,-2.866881490E-1,8.811416030E-1,1.269531012E0
2.575053250E0,-2.673634589E-1,8.348276615E-1,1.271248698E0
2.585072250E0,-2.456752509E-1,7.938451171E-1,1.263253689E0
2.595091250E0,-2.214087993E-1,7.640238404E-1,1.243377924E0
2.605110250E0,-2.057849318E-1,7.460517883E-1,1.223144770E0
2.615129250E0,-1.987515241E-1,7.272027135E-1,1.211092353E0
2.625148250E0,-2.113584429E-1,7.171102166E-1,1.194552541E0
2.635167250E0,-2.412034273E-1,6.726458073E-1,1.191171646E0
2.645186250E0,-2.686101496E-1,5.988443494E-1,1.193735838E0
2.655205250E0,-2.696186900E-1,5.182693601E-1,1.178889513E0
2.665224250E0,-2.443172336E-1,4.371419251E-1,1.130622745E0
2.675242250E0,-2.005716264E-1,3.681831062E-1,1.072204232E0
2.685261250E0,-1.565334350E-1,3.242517114E-1,1.015061378E0
2.695280250E0,-1.220590770E-1,3.018808961E-1,9.806533456E-1
2.705299250E0,-9.976564348E-2,3.115383387E-1,9.648845792E-1
2.715318250E0,-9.715281427E-2,3.218546510E-1,9.865664840E-1
2.725337250E0,-1.090521365E-1,3.352327347E-1,1.032960057E0
2.735356250E0,-1.326727718E-1,3.656015396E-1,1.087758303E0
2.745375250E0,-1.479796618E-1,3.883794248E-1,1.129917860E0
2.755394250E0,-1.426181942E-1,4.098330438E-1,1.139610648E0
2.765413250E0,-1.196929663E-1,4.483508170E-1,1.123337269E0
2.775432250E0,-9.541985393E-2,4.932061732E-1,1.086833358E0
2.785451250E0,-8.632875979E-2,5.428670645E-1,1.035904169E0
2.795470250E0,-1.015460640E-1,5.884982347E-1,9.683371186E-1
2.805489250E0,-1.206837595E-1,6.242178679E-1,9.013794661E-1
2.815508250E0,-1.191609502E-1,6.324563622E-1,8.413416743E-1
2.825527250E0,-9.230574965E-2,6.144546270E-1,7.902337313E-1
2.835546250E0,-4.547140002E-2,5.928460360E-1,7.510594130E-1
2.845565250E0,1.475157030E-2,6.128243208E-1,7.167875171E-1
2.855584250E0,5.954966694E-2,6.441100836E-1,7.172594070E-1
2.865603250E0,8.983884752E-2,7.082348466E-1,7.446556687E-1
2.875622250E0,1.031903401E-1,8.006734252E-1,7.733511925E-1
2.885640250E0,9.237645566E-2,8.541305661E-1,7.927066684E-1
2.895659250E0,7.767207921E-2,8.634575009E-1,7.879257798E-1
2.905678250E0,8.591693640E-2,8.311559558E-1,7.460647821E-1
2.915697250E0,1.137759984E-1,7.741592526E-1,6.613400578E-1
2.925716250E0,1.327267289E-1,7.106142044E-1,5.281415582E-1
2.935735250E0,1.465317607E-1,6.611564159E-1,3.569436669E-1
2.945754250E0,1.486300975E-1,6.016140580E-1,1.797128916E-1
2.955773250E0,1.581769884E-1,5.633588433E-1,1.817645505E-2
2.965792250E0,1.635733098E-1,5.351115465E-1,-1.129931360E-1
2.975811250E0,1.820343435E-1,5.572490692E-1,-2.003695816E-1
2.985830250E0,2.017026097E-1,5.881592035E-1,-2.373494506E-1
2.995849250E0,2.159310877E-1,6.080080271E-1,-2.146542668E-1
3.005868250E0,2.365863621E-1,5.924124122E-1,-1.463785470E-1
3.015887250E0,2.618634999E-1,5.590853691E-1,-6.611140817E-2
3.025906250E0,2.856186926E-1,4.959819913E-1,1.174935326E-2
3.035925250E0,2.814159691E-1,4.010400474E-1,7.734168321E-2
3.045944250E0,2.469339669E-1,3.374274373E-1,9.323959798E-2
3.055963250E0,1.871859580E-1,3.328124583E-1,6.025182083E-2
3.065982250E0,1.226187050E-1,3.541179597E-1,-3.738650121E-3
3.076001250E0,6.191301346E-2,3.837778568E-1,-7.845230401E-2
3.086020250E0,2.407595981E-3,4.076444507E-1,-1.303588152E-1
3.096039250E0,-5.924697593E-2,4.255821705E-1,-1.633851975E-1
3.106057250E0,-1.148912385E-1,4.292370677E-1,-1.814933121E-1
3.116076250E0,-1.546833962E-1,4.181886613E-1,-1.999072134E-1
3.126095250E0,-1.701358110E-1,3.928352892E-1,-2.103124112E-1
3.136114250E0,-1.722192019E-1,3.478715420E-1,-2.162501961E-1
3.146133250E0,-1.611680388E-1,2.905057371E-1,-2.067756206E-1
3.156152250E0,-1.488378644E-1,2.437180132E-1,-1.936318427E-1
3.166171250E0,-1.365008205E-1,2.104720324E-1,-1.763472557E-1
3.176190250E0,-1.296644956E-1,1.840595901E-1,-1.521476358E-1
3.186209250E0,-1.304361373E-1,1.752486229E-1,-1.297015548E-1
3.196228250E0,-1.358942837E-1,1.645728201E-1,-1.086865440E-1
3.206247250E0,-1.330553293E-1,1.477686763E-1,-9.605492651E-2
3.216266250E0,-1.145801917E-1,1.270215809E-1,-9.312305599E-2
3.226285250E0,-8.691418171E-2,1.125925854E-1,-1.015909612E-1
3.236304250E0,-6.002371013E-2,1.080175415E-1,-1.105562299E-1
3.246323250E0,-4.466701671E-2,1.056729853E-1,-1.069396287E-1
3.256342250E0,-4.423611611E-2,9.796659648E-2,-9.122590721E-2
3.266361250E0,-4.873631895E-2,9.087400138E-2,-8.344193548E-2
3.276380250E0,-4.591629654E-2,9.202501923E-2,-9.181784838E-2
3.286399250E0,-4.653123394E-2,9.728994966E-2,-1.060646698E-1
3.296418250E0,-4.027786478E-2,1.028282568E-1,-1.213091388E-1
