"Time (s)","X (rad/s)","Y (rad/s)","Z (rad/s)"
4.011583334E-3,9.284473956E-2,6.506016850E-1,-1.955727637E-1
1.395958333E-2,7.218183950E-3,7.169411182E-1,-1.429415941E-1
2.390758333E-2,-7.590306550E-2,6.669085622E-1,-7.504138350E-2
3.385658333E-2,-1.520911306E-1,5.162162185E-1,-7.239283994E-3
4.380458333E-2,-1.810884178E-1,3.267096579E-1,7.258524001E-2
5.375358333E-2,-1.581833959E-1,1.788897365E-1,1.684398949E-1
6.370158333E-2,-1.082970649E-1,1.035547629E-1,2.740928233E-1
7.364958333E-2,-5.483404174E-2,9.588935226E-2,3.634758592E-1
8.359858333E-2,-2.505111322E-2,1.769067049E-1,4.149031043E-1
9.354658333E-2,-3.510176390E-2,3.302960098E-1,4.112220705E-1
1.034945833E-1,-7.895897329E-2,5.519192219E-1,3.787208796E-1
1.134435833E-1,-1.740011424E-1,7.882313132E-1,3.598403335E-1
1.233915833E-1,-2.729849815E-1,9.232650399E-1,3.641937971E-1
1.333405833E-1,-3.550690413E-1,1.066414237E0,4.050237238E-1
1.432885833E-1,-4.163686335E-1,1.190726876E0,4.897828102E-1
1.532365833E-1,-4.672476649E-1,1.271940589E0,6.185629368E-1
1.631855833E-1,-5.294519663E-1,1.292167783E0,7.774280310E-1
1.731335833E-1,-6.402587295E-1,1.275817275E0,9.366117120E-1
1.830815833E-1,-8.249825239E-1,1.266377687E0,1.061346412E0
1.930305833E-1,-1.127579093E0,1.415936708E0,1.049835563E0
2.029785833E-1,-1.441560745E0,1.197455764E0,1.077540398E0
2.129265833E-1,-1.630226374E0,1.136816263E0,1.080121517E0
2.228755833E-1,-1.780939937E0,1.422984838E0,1.046217561E0
2.328235833E-1,-1.935987234E0,1.726820588E0,1.036479235E0
2.427725833E-1,-2.116211176E0,2.089547873E0,1.075961351E0
2.527205833E-1,-2.334037304E0,2.491778612E0,1.167895317E0
2.626685833E-1,-2.571903944E0,2.639986753E0,1.196149588E0
2.726175833E-1,-2.913842916E0,2.666637897E0,1.132329345E0
2.825655833E-1,-3.155980825E0,2.728634596E0,1.076582551E0
2.925135833E-1,-2.907812357E0,2.475487471E0,9.110911489E-1
3.024625833E-1,-2.421034813E0,2.341954470E0,9.056056142E-1
3.124105833E-1,-2.037789822E0,2.513570070E0,1.007373452E0
3.223595833E-1,-1.706204057E0,2.491596460E0,1.147322655E0
3.323075833E-1,-1.466673493E0,2.442587137E0,1.213956356E0
3.422555833E-1,-1.288671255E0,2.202291250E0,1.140096545E0
3.522045833E-1,-1.090404868E0,1.757446647E0,9.712758064E-1
3.621525833E-1,-8.515122533E-1,1.241944432E0,8.188908100E-1
3.721005833E-1,-5.954362154E-1,7.397853732E-1,7.332869768E-1
3.820495833E-1,-3.597064912E-1,3.357665539E-1,6.950463653E-1
3.919975833E-1,-1.555548459E-1,8.797253668E-2,6.279510260E-1
4.019455833E-1,3.173013683E-3,-5.067348853E-2,4.999967813E-1
4.118945833E-1,1.604568809E-1,-1.530135125E-1,3.442636728E-1
4.218425833E-1,3.066854477E-1,-2.298366427E-1,2.342080325E-1
4.317915833E-1,4.181753099E-1,-3.656533659E-1,1.835785508E-1
4.417395833E-1,4.887951314E-1,-5.681511164E-1,1.484935284E-1
4.516872917E-1,5.170990825E-1,-7.881774902E-1,1.114620194E-1
4.616362917E-1,5.358525515E-1,-8.960096836E-1,8.721128106E-2
4.715842917E-1,5.112137794E-1,-8.440834880E-1,6.233271956E-2
4.815322917E-1,5.279113054E-1,-5.274081230E-1,5.011067539E-2
4.914812917E-1,6.063009501E-1,-1.329094321E-1,-8.285878226E-3
5.014292917E-1,7.674488425E-1,2.941697240E-1,-2.536666095E-1
5.113772917E-1,1.027493238E0,7.433078289E-1,-6.727660894E-1
5.213262917E-1,1.352808952E0,1.011307716E0,-9.303140044E-1
5.312742917E-1,1.687859416E0,1.090517640E0,-9.952071309E-1
5.412232917E-1,1.996284604E0,9.622130990E-1,-8.538026214E-1
5.511712917E-1,2.175467014E0,7.960890532E-1,-5.283201337E-1
5.611192917E-1,2.207108021E0,6.240512729E-1,-2.578595877E-1
5.710682917E-1,2.181330919E0,2.791298926E-1,-3.202182651E-1
5.810162917E-1,2.129773855E0,-7.197327167E-2,-9.363669753E-1
5.909642917E-1,2.087708950E0,-2.019436657E-1,-1.610121131E0
6.009132917E-1,2.005180359E0,-2.889137268E-1,-1.960291862E0
6.108612917E-1,1.900672555E0,-1.326350123E-1,-2.045580626E0
6.208092917E-1,1.835225463E0,4.958859086E-1,-1.881922722E0
6.307582917E-1,1.755477786E0,1.606626272E0,-1.471644878E0
6.407062917E-1,1.672182560E0,2.898006678E0,-1.111085892E0
6.506552917E-1,1.637327790E0,4.069109917E0,-1.072323799E0
6.606032917E-1,1.674839497E0,5.058692932E0,-1.350610018E0
6.705512917E-1,1.724293709E0,5.663161755E0,-1.732560873E0
6.805002917E-1,1.774598956E0,5.860296249E0,-2.075760603E0
6.904482917E-1,1.815969348E0,5.619120598E0,-2.222795486E0
7.003962917E-1,1.802767754E0,5.144794941E0,-2.282318115E0
7.103452917E-1,1.509116650E0,4.575037479E0,-2.205223322E0
7.202932917E-1,8.719820380E-1,4.146715641E0,-2.028769016E0
7.302412917E-1,1.918400824E-1,3.657759905E0,-1.982244492E0
7.401902917E-1,-1.657776982E-1,3.011412621E0,-2.216035604E0
7.501382917E-1,-2.348944694E-1,2.412882328E0,-2.610517979E0
7.600872917E-1,-1.866877973E-1,2.052089691E0,-2.968130827E0
7.700352917E-1,-1.163792461E-1,2.072038651E0,-3.157608986E0
7.799832917E-1,-4.268984497E-2,2.474604130E0,-3.162583113E0
7.899322917E-1,-5.035519972E-2,3.003510952E0,-2.994971752E0
7.998802917E-1,-2.724524438E-1,3.274062395E0,-2.835621595E0
8.098282917E-1,-6.600695252E-1,3.122960091E0,-2.833624601E0
8.197772917E-1,-9.547296762E-1,2.748402119E0,-2.972362280E0
8.297252917E-1,-1.082699418E0,2.364439726E0,-3.177167892E0
8.396742917E-1,-1.178309560E0,2.102796078E0,-3.535333633E0
8.496222917E-1,-1.220808148E0,1.933941483E0,-3.802196026E0
8.595702917E-1,-1.229324102E0,1.915367007E0,-3.941564560E0
8.695192917E-1,-1.203448772E0,2.061906815E0,-3.991486311E0
8.794672917E-1,-1.170479894E0,2.261722326E0,-3.992981195E0
8.894152917E-1,-1.142818451E0,2.414753675E0,-3.965848684E0
8.993642917E-1,-1.137871385E0,2.396561384E0,-3.944499254E0
9.093122917E-1,-1.262173653E0,2.016916752E0,-3.961288214E0
9.192612917E-1,-1.342569470E0,1.700984836E0,-3.951141596E0
9.292092917E-1,-1.320785284E0,1.305532575E0,-3.969626427E0
9.391572917E-1,-1.212215424E0,7.302863598E-1,-3.892968893E0
9.491062917E-1,-1.179380536E0,2.405206114E-1,-3.744869232E0
9.590542917E-1,-1.265103102E0,-2.739366516E-2,-3.621002913E0
9.690022917E-1,-1.425842881E0,-8.800944686E-2,-3.530639172E0
9.789512917E-1,-1.541518331E0,5.667396635E-2,-3.420919895E0
9.888992917E-1,-1.471987724E0,2.530571520E-1,-3.224828959E0
9.988472917E-1,-1.127403975E0,2.921555340E-1,-2.925991058E0
1.008796292E0,-6.750193238E-1,2.310255617E-1,-2.594134569E0
1.018744292E0,-2.677671313E-1,8.421535045E-2,-2.298089504E0
1.028693292E0,4.307277966E-3,-1.836836785E-1,-2.078446865E0
1.038641292E0,4.535111785E-2,-4.748367071E-1,-1.990849853E0
1.048589292E0,-7.857898623E-2,-7.631897330E-1,-1.932136655E0
1.058538292E0,-2.344548702E-1,-1.030020237E0,-1.856378555E0
1.068486292E0,-3.201025724E-1,-1.240246058E0,-1.740350366E0
1.078434292E0,-2.861344814E-1,-1.382413507E0,-1.588933110E0
1.088383292E0,-1.372703463E-1,-1.448370934E0,-1.350717306E0
1.098331292E0,1.097777933E-1,-1.457419753E0,-1.062721014E0
1.108280292E0,3.259422183E-1,-1.516371012E0,-9.074363112E-1
1.118228292E0,4.759466350E-1,-1.622569561E0,-7.979170084E-1
1.128176292E0,5.311620235E-1,-1.703953028E0,-7.211190462E-1
1.138125292E0,4.634553790E-1,-1.962341189E0,-6.823321581E-1
1.148073292E0,2.444329858E-1,-2.305063725E0,-6.728720665E-1
1.158021292E0,2.308915928E-2,-2.469572067E0,-6.187454462E-1
1.167970292E0,-2.939903736E-2,-2.510503531E0,-5.464612246E-1
1.177918292E0,4.217687994E-2,-2.508112431E0,-4.635088146E-1
1.187866292E0,1.665029824E-1,-2.360227346E0,-3.766525388E-1
1.197815292E0,3.190280795E-1,-2.313806534E0,-2.636804581E-1
1.207763292E0,4.479240179E-1,-2.228720903E0,-1.894586831E-1
1.217712292E0,3.386196196E-1,-2.089922428E0,-1.577913016E-1
1.227660292E0,-1.227427721E-1,-2.306326151E0,2.455156110E-2
1.237608292E0,-6.095188260E-1,-2.193682909E0,1.049614474E-1
1.247557292E0,-8.696753383E-1,-1.841935277E0,1.991357505E-1
1.257505292E0,-9.868674874E-1,-1.437410235E0,5.595194548E-2
1.267453292E0,-9.363259673E-1,-1.074792504E0,2.148031257E-2
1.277402292E0,-8.137075901E-1,-7.107276917E-1,8.259399980E-2
1.287350292E0,-5.770118833E-1,-3.341632485E-1,2.845966257E-2
1.297299292E0,-3.187049329E-1,-1.816772856E-2,1.098852605E-2
1.307247292E0,-1.161337793E-1,3.232027590E-1,8.174166083E-2
1.317195292E0,1.892870292E-2,5.766070485E-1,7.964841276E-2
1.327144292E0,9.038993716E-2,7.421452999E-1,-3.207775764E-3
1.337092292E0,2.670328915E-1,9.886008501E-1,-5.331355333E-2
1.347040292E0,3.863904774E-1,9.146287441E-1,-1.354036629E-1
1.356989292E0,4.692089260E-1,9.554829597E-1,-1.693339348E-1
1.366937292E0,4.822632074E-1,8.464531898E-1,-1.277825236E-1
1.376886292E0,5.698378086E-1,7.975741029E-1,-6.315214187E-2
1.386834292E0,5.493139625E-1,8.175867200E-1,-1.289934516E-1
1.396782292E0,5.495960116E-1,7.577167153E-1,-1.851541996E-1
1.406731292E0,5.523880124E-1,6.752802134E-1,-2.327253222E-1
1.416679292E0,5.752432942E-1,6.547539234E-1,-2.259790003E-1
1.426627292E0,6.267504692E-1,8.180947900E-1,-2.162295729E-1
1.436576292E0,7.503547072E-1,9.577783942E-1,-2.205833197E-1
1.446524292E0,9.742209911E-1,1.072080493E0,-1.814287156E-1
1.456472042E0,9.991726875E-1,1.072145581E0,-1.682996005E-1
1.466421042E0,9.460615516E-1,9.531814456E-1,-1.016730666E-1
1.476369042E0,7.252793908E-1,6.843097806E-1,-1.268668324E-1
1.486318042E0,4.225742817E-1,4.041693211E-1,-1.444258988E-1
1.496266042E0,1.324212849E-1,1.857376397E-1,-1.797697693E-1
1.506214042E0,-8.043538779E-2,3.980637714E-2,-2.284082919E-1
1.516163042E0,-2.215504348E-1,2.445991151E-2,-3.083912730E-1
1.526111042E0,-2.956361175E-1,8.221408725E-2,-4.009581804E-1
1.536059042E0,-3.507073522E-1,1.285592169E-1,-5.308884978E-1
1.546008042E0,-3.258544505E-1,1.223140955E-1,-4.925406575E-1
1.555956042E0,-1.832978427E-1,-7.649236359E-3,-3.880525827E-1
1.565905042E0,-1.535551399E-1,-1.596167237E-1,-3.173757195E-1
1.575853042E0,-2.188148350E-1,-3.155202866E-1,-2.479143441E-1
1.585801042E0,-3.493063748E-1,-5.131704807E-1,-2.515969872E-1
1.595750042E0,-4.944846034E-1,-6.090368629E-1,-2.792312801E-1
1.605698042E0,-6.147509813E-1,-4.333049655E-1,-3.768843114E-1
1.615646042E0,-7.107456923E-1,1.762304455E-2,-6.207597852E-1
1.625595042E0,-7.351927757E-1,3.282760382E-1,-7.158939242E-1
1.635543042E0,-1.049687624E0,4.381516576E-1,-1.028415322E0
1.645492042E0,-9.526911974E-1,8.920571804E-1,-8.571438193E-1
1.655440042E0,-8.088163137E-1,9.798064828E-1,-8.056191206E-1
1.665388042E0,-6.321789026E-1,5.966358781E-1,-7.536755204E-1
1.675337042E0,-6.199909449E-1,1.730086654E-1,-5.900181532E-1
1.685285042E0,-6.291160583E-1,-4.052984118E-1,-4.666001201E-1
1.695233042E0,-6.745629311E-1,-1.140450716E0,-3.286417425E-1
1.705182042E0,-8.389936686E-1,-1.966549397E0,-2.076141238E-1
1.715130042E0,-1.004321575E0,-2.707598209E0,-1.593155712E-1
1.725078042E0,-1.129821181E0,-3.030469894E0,-8.004184067E-2
1.735027042E0,-1.137827396E0,-2.964460135E0,-6.988959759E-2
1.744975042E0,-1.065458417E0,-2.540607452E0,-8.172610402E-2
1.754924042E0,-8.664603829E-1,-1.806862950E0,-8.023952693E-2
1.764872042E0,-6.293269992E-1,-8.602992296E-1,3.849098831E-2
1.774820042E0,-4.105783701E-1,-1.350389570E-1,1.110384241E-1
1.784769042E0,-3.137964606E-1,2.972386181E-1,1.240112036E-1
1.794717042E0,-3.536144197E-1,2.414326072E-1,4.921179637E-2
1.804665042E0,-4.955271780E-1,-8.533621579E-2,-4.856818914E-2
1.814614042E0,-6.801677942E-1,-6.815758944E-1,-2.289486080E-1
1.824562042E0,-8.834111691E-1,-1.140491962E0,-3.742052913E-1
1.834511042E0,-1.024343729E0,-1.463222027E0,-5.327669978E-1
1.844459042E0,-1.000252366E0,-1.306832075E0,-5.672941804E-1
1.854407042E0,-7.740514278E-1,-1.167558074E0,-5.654850602E-1
1.864356042E0,-5.931208730E-1,-8.863915801E-1,-5.957896709E-1
1.874304042E0,-5.080070496E-1,-5.302355886E-1,-5.658178926E-1
1.884252042E0,-5.046554804E-1,-3.159798086E-1,-5.133764148E-1
1.894201042E0,-5.777398348E-1,-2.685513198E-1,-4.914410710E-1
1.904149042E0,-7.271838784E-1,-3.128844500E-1,-5.019270778E-1
1.914098042E0,-8.911429644E-1,-3.130061626E-1,-4.771932662E-1
1.924046042E0,-1.019842863E0,-2.733819485E-1,-5.166115165E-1
1.933994042E0,-1.108095527E0,-1.625441015E-1,-5.652199984E-1
1.943943042E0,-1.135011554E0,-6.614528596E-2,-6.037430167E-1
1.953891042E0,-1.101147532E0,2.249510214E-2,-6.567220688E-1
1.963839042E0,-1.018820524E0,6.981954724E-2,-6.929516792E-1
1.973788042E0,-9.326493144E-1,1.164283305E-1,-7.016951442E-1
1.983736042E0,-8.538871408E-1,1.149771735E-1,-6.838106513E-1
1.993685042E0,-8.639485836E-1,-5.287281424E-2,-4.963547587E-1
2.003633042E0,-9.224173427E-1,-1.735470295E-1,-4.030330777E-1
2.013581042E0,-9.456267953E-1,-1.256655306E-1,-2.675064206E-1
2.023530042E0,-9.442233443E-1,-3.070631064E-2,-1.221577004E-1
2.033478042E0,-9.407612085E-1,1.461563073E-2,-2.863973379E-2
2.043426042E0,-8.425452709E-1,-4.045478255E-2,8.792488277E-2
2.053375042E0,-7.110903263E-1,-1.020579562E-1,7.713801414E-2
2.063323042E0,-6.873137355E-1,2.294886392E-3,2.168325037E-1
2.073272042E0,-7.224482894E-1,9.318591654E-2,5.260880589E-1
2.083220042E0,-8.455742002E-1,6.480545551E-2,8.112092614E-1
2.093168042E0,-1.029576182E0,-3.454243764E-2,1.132099152E0
2.103117042E0,-1.295673609E0,-7.542493194E-2,1.522746921E0
2.113065042E0,-1.650649905E0,1.575587988E-1,2.062443495E0
2.123013042E0,-1.890155196E0,-1.751138866E-1,2.527128696E0
2.132962042E0,-1.931826472E0,-5.217514634E-1,2.578801394E0
2.142910042E0,-1.741830587E0,-1.627096236E-1,2.245848179E0
2.152859042E0,-1.198480487E0,8.055790067E-1,1.313144922E0
2.162807042E0,-6.489034295E-1,1.487486124E0,1.946671754E-1
2.172755042E0,-3.040001094E-1,1.530752897E0,-4.492649138E-1
2.182704042E0,-1.653820127E-1,1.137157798E0,-8.616652489E-1
2.192652042E0,-9.377601743E-2,6.664906740E-1,-1.370741010E0
2.202600042E0,2.371274401E-3,2.874449790E-1,-2.007404566E0
2.212549042E0,1.214609146E-1,1.017065346E-1,-2.671376228E0
2.222497042E0,2.848349810E-1,1.015925184E-1,-3.275184870E0
2.232446042E0,3.546689451E-1,-3.444947675E-2,-3.890771866E0
2.242394042E0,4.219189584E-1,-3.468417004E-2,-4.319695950E0
2.252342042E0,4.449209571E-1,-3.128384426E-2,-4.471358299E0
2.262291042E0,4.229728281E-1,-3.182115257E-1,-4.549649715E0
2.272239042E0,4.391289055E-1,-3.728366792E-1,-4.530521393E0
2.282187042E0,4.098097682E-1,-4.318364561E-1,-4.494014263E0
2.292136042E0,1.107836515E-1,-5.339202285E-1,-3.787758589E0
2.302084042E0,-6.669838727E-2,-3.852994442E-1,-1.783168077E0
2.312033042E0,1.130906213E-2,-3.002316952E-1,-7.530870438E-1
2.321981042E0,-1.050065365E-2,-6.042766571E-2,1.927661151E-1
2.331929042E0,-9.069802612E-2,1.990252137E-1,6.375185251E-1
2.341878042E0,-2.324428856E-1,2.018669248E-1,6.880051494E-1
2.351826042E0,-3.685746193E-1,2.063428909E-1,5.524150729E-1
2.361774042E0,-4.483485818E-1,2.017955631E-1,3.805733323E-1
2.371723042E0,-4.156148732E-1,1.528312117E-1,2.474309802E-1
2.381671042E0,-3.715601265E-1,1.176098213E-1,1.932733357E-1
2.391620042E0,-3.569332361E-1,8.171973377E-2,2.131258696E-1
2.401568042E0,-3.733715117E-1,1.352683920E-2,2.704387605E-1
2.411516042E0,-4.454294443E-1,-1.021931022E-1,3.224180639E-1
2.421465042E0,-4.660825729E-1,-1.402299553E-1,3.173927665E-1
2.431413042E0,-4.391705394E-1,-1.391327232E-1,2.446996570E-1
2.441361042E0,-3.974783123E-1,-6.413234025E-2,1.498329937E-1
2.451313542E0,-3.830756843E-1,3.474763036E-2,8.831159025E-2
2.461261542E0,-3.776770830E-1,1.132031232E-1,4.238382727E-2
2.471210542E0,-3.808094859E-1,2.021023631E-1,-1.062532701E-2
2.481158542E0,-3.529356122E-1,2.083618343E-1,-9.607661515E-2
2.491106542E0,-2.698993385E-1,1.950398982E-1,-2.208579630E-1
2.501055542E0,-1.817065179E-1,1.318898648E-1,-3.519429266E-1
2.511003542E0,-8.778349310E-2,6.244714186E-2,-4.780254960E-1
2.520951542E0,7.036672905E-4,1.554684341E-2,-5.594386458E-1
2.530900542E0,7.267479599E-2,1.709973440E-2,-6.022968888E-1
2.540848542E0,1.157511026E-1,3.786889091E-2,-6.567683220E-1
2.550797542E0,1.263185292E-1,6.341633201E-2,-7.308558822E-1
2.560745542E0,1.040785760E-1,9.703164548E-2,-7.935604453E-1
2.570693542E0,7.541710883E-2,7.838498801E-2,-7.660332322E-1
2.580642542E0,1.021035016E-3,4.111443460E-2,-6.874459982E-1
2.590590542E0,2.803853713E-2,-1.126735285E-1,-5.733804107E-1
2.600538542E0,1.641975343E-1,-3.692865074E-1,-3.355371654E-1
2.610487542E0,2.611648440E-1,-3.530422747E-1,-9.512215853E-2
2.620435542E0,3.137964904E-1,-1.488513052E-1,1.349086016E-1
2.630384542E0,4.033040106E-1,-1.619798839E-1,3.895517886E-1
2.640332542E0,5.573790073E-1,-2.196929306E-1,6.038027406E-1
2.650280542E0,7.371239662E-1,-1.682891250E-1,6.811470389E-1
2.660229542E0,8.556541800E-1,-2.358705997E-1,7.652314305E-1
2.670177542E0,8.132667542E-1,-2.865542769E-1,8.908751011E-1
2.680126542E0,6.141501069E-1,-3.673981726E-1,9.713402390E-1
2.690074542E0,3.455492854E-1,-3.912633061E-1,9.380661845E-1
2.700022542E0,1.808051467E-1,-3.475299776E-1,8.174272180E-1
2.709971542E0,1.419735998E-1,-4.287169576E-1,6.984920502E-1
2.719919542E0,1.665662527E-1,-4.994403124E-1,6.525536776E-1
2.729867542E0,1.671849042E-1,-4.246430397E-1,6.311985850E-1
2.739816542E0,1.298854649E-1,-2.875269949E-1,6.280520558E-1
2.749764542E0,7.727046311E-2,-1.741330624E-1,6.424970627E-1
2.759713542E0,2.598479949E-2,-1.143090054E-1,6.604501605E-1
2.769661542E0,-1.436715014E-2,-7.641994208E-2,7.584457397E-1
2.779609542E0,-1.285882015E-2,-4.253659397E-2,9.357059002E-1
2.789558542E0,3.341919556E-2,-8.642494678E-2,1.124047041E0
2.799506542E0,9.934450686E-2,-2.379092574E-1,1.305752754E0
2.809455542E0,1.654939651E-1,-4.187022150E-1,1.440886021E0
2.819403542E0,2.135696560E-1,-5.104019642E-1,1.548421144E0
2.829351542E0,2.037742883E-1,-5.495669246E-1,1.665246844E0
2.839300542E0,1.584420502E-1,-5.039218664E-1,1.768080711E0
2.849248542E0,8.404824138E-2,-5.040611625E-1,1.921547174E0
2.859196542E0,4.870396107E-2,-5.396233201E-1,2.059086561E0
2.869145542E0,4.469750077E-2,-5.318082571E-1,2.154596329E0
2.879093542E0,5.706346035E-2,-5.619108677E-1,2.221799850E0
2.889042542E0,7.577962428E-2,-5.804821253E-1,2.190854549E0
2.898990542E0,7.868810743E-2,-5.822598934E-1,1.873159170E0
2.908938542E0,1.186858565E-1,-5.955996513E-1,1.516849518E0
2.918887542E0,9.205335379E-2,-4.466211200E-1,1.068740368E0
2.928835542E0,1.140910760E-2,-1.831290424E-1,6.358022690E-1
2.938783542E0,-1.009582356E-1,1.081102192E-1,2.720540166E-1
2.948732542E0,-1.363090277E-1,1.949047744E-1,1.045179963E-1
2.958680542E0,-6.204760820E-2,5.969915912E-2,1.609658599E-1
2.968629542E0,-2.993227914E-2,2.427778207E-2,1.451900899E-1
2.978577542E0,-8.221360296E-2,9.804235399E-2,1.016341150E-1
2.988525542E0,-1.906524599E-1,1.478871405E-1,3.579624742E-2
2.998474542E0,-2.122561932E-1,6.490644813E-2,-6.680703908E-2
3.008422542E0,-9.557804465E-2,-2.761547454E-3,-1.452126354E-1
3.018371542E0,6.564518064E-2,-1.716351323E-2,-1.131819636E-1
3.028319542E0,9.697141498E-2,1.205155253E-1,-1.746232212E-1
3.038267542E0,2.736037597E-2,2.634412646E-1,-3.739467263E-1
3.048216542E0,-8.406409062E-3,3.514786959E-1,-5.926942229E-1
3.058164542E0,-1.386627555E-2,4.156265557E-1,-6.911827326E-1
3.068112542E0,-4.015220702E-2,3.200065494E-1,-6.068841219E-1
3.078061542E0,-3.796555102E-2,2.110739946E-1,-4.956988692E-1
3.088009542E0,1.390323881E-2,1.117695197E-1,-3.894201219E-1
3.097958542E0,4.405123740E-2,8.007939905E-2,-3.474746943E-1
3.107906542E0,3.299512714E-2,1.035610214E-1,-3.170083761E-1
3.117854542E0,-9.973976761E-3,9.765390307E-2,-2.478558123E-1
3.127803542E0,-1.167839952E-2,7.070031017E-2,-1.656339020E-1
3.137751542E0,2.760460600E-2,4.441821575E-2,-1.335189641E-1
3.147700542E0,8.809511364E-2,2.953380905E-2,-5.879891291E-2
3.157648542E0,-1.103957146E-1,2.795880437E-1,-1.440536603E-2
3.167596542E0,-2.705273330E-1,5.975537896E-1,-7.234403491E-2
3.177545542E0,-2.734188139E-1,5.194367170E-1,-1.905188523E-2
3.187493542E0,-2.310484648E-1,1.708339751E-1,7.739129663E-2
3.197441542E0,-2.162430733E-1,3.694762476E-3,9.846448153E-2
3.207390542E0,-2.355203629E-1,-7.203754783E-2,9.011227638E-2
3.217338542E0,-3.540357351E-1,-5.808117241E-2,1.257979125E-1
3.227287542E0,-4.773507714E-1,-1.035684943E-1,2.907655537E-1
3.237235542E0,-4.702813327E-1,-1.610721052E-1,6.143576503E-1
3.247183542E0,-1.327171624E-1,-3.980081975E-1,8.817757368E-1
3.257132542E0,3.523043692E-1,-3.798888922E-1,7.697288990E-1
3.267080542E0,5.564481616E-1,-2.901518345E-1,5.962500572E-1
3.277029542E0,3.649085164E-1,-1.090836152E-1,3.837150335E-1
3.286977542E0,2.508235164E-3,2.471918985E-2,3.389560878E-1
