"Time (s)","X (rad/s)","Y (rad/s)","Z (rad/s)"
6.525958306E-3,-3.146031201E-1,-1.964586377E0,-1.485853642E-1
1.651795825E-2,-5.293548107E-1,-2.099129915E0,-1.451837830E-2
2.651095833E-2,-7.799609900E-1,-2.044309616E0,9.451790154E-2
3.650395828E-2,-1.105152369E0,-2.110750437E0,1.550808400E-1
4.649595823E-2,-1.411583185E0,-2.256581545E0,1.439062208E-1
5.648895830E-2,-1.611313820E0,-2.438404322E0,-1.950827613E-2
6.648195826E-2,-1.683476567E0,-2.645895958E0,-4.032317698E-1
7.647495833E-2,-1.649390221E0,-2.935221195E0,-9.265021682E-1
8.646695828E-2,-1.687409639E0,-3.364371061E0,-1.422271132E0
9.645995824E-2,-1.812157750E0,-3.747412205E0,-1.784547687E0
1.064529583E-1,-1.733283758E0,-2.982421637E0,-1.733623505E0
1.164459583E-1,-1.553372383E0,-2.761761904E0,-1.326386809E0
1.264379583E-1,-1.326273203E0,-2.872727394E0,-6.705117822E-1
1.364309583E-1,-1.036265016E0,-2.583528757E0,-1.857075542E-1
1.464239582E-1,-7.215341330E-1,-2.162542582E0,-7.258982211E-2
1.564169583E-1,-4.501348138E-1,-1.726236820E0,-2.356943190E-1
1.664089583E-1,-2.334423363E-1,-1.278888822E0,-4.984371662E-1
1.764019582E-1,-2.718236670E-2,-8.157443404E-1,-7.539144754E-1
1.863949583E-1,1.807198524E-1,-3.823573887E-1,-8.173568249E-1
1.963869582E-1,3.825035989E-1,-1.439871639E-1,-6.060560346E-1
2.063799583E-1,5.733472705E-1,-1.362193227E-1,-3.101336658E-1
2.163729583E-1,7.557516694E-1,-2.808534801E-1,-5.706729367E-2
2.263659582E-1,9.118434787E-1,-4.224541485E-1,7.174528390E-2
2.363589583E-1,1.017790318E0,-4.788042605E-1,3.944327310E-2
2.463504582E-1,1.028581977E0,-5.048188567E-1,-7.194854319E-2
2.563434583E-1,9.026195407E-1,-4.088156223E-1,-1.227797642E-1
2.663364583E-1,5.368515253E-1,-2.373604923E-1,-1.165487990E-2
2.763294582E-1,-1.338024065E-2,-6.453332305E-2,1.566936523E-1
2.863214583E-1,-5.718671679E-1,9.022941440E-2,2.037192136E-1
2.963144582E-1,-1.035421729E0,4.627927020E-2,1.552875042E-1
3.063074583E-1,-1.385530829E0,-2.478833795E-1,1.597173959E-1
3.162994583E-1,-1.575617075E0,-5.207950473E-1,2.506337464E-1
3.262924582E-1,-1.613696575E0,-6.123479605E-1,2.934581637E-1
3.362854583E-1,-1.531452656E0,-5.768829584E-1,3.079337776E-1
3.462784583E-1,-1.347215652E0,-4.150187373E-1,3.408383429E-1
3.562704583E-1,-1.106204867E0,-1.787880808E-1,3.447159231E-1
3.662634583E-1,-8.181743622E-1,-6.480308715E-3,3.297003806E-1
3.762564582E-1,-4.765677452E-1,1.139083318E-2,3.214980960E-1
3.862494583E-1,-9.482442588E-2,-1.185956970E-1,3.212333322E-1
3.962414582E-1,2.841021121E-1,-1.899841428E-1,3.121836483E-1
4.062344583E-1,6.252264380E-1,-2.405028194E-1,2.821395993E-1
4.162274583E-1,9.223867655E-1,-3.073377907E-1,2.502908409E-1
4.262204582E-1,1.259922743E0,-1.809060574E-1,2.535829842E-1
4.362124583E-1,1.294703722E0,-3.659352660E-1,1.736815125E-1
4.462054583E-1,1.134880900E0,-4.443295896E-1,1.769434065E-1
4.561984583E-1,8.987725377E-1,-2.512940764E-1,2.029430568E-1
4.661904583E-1,6.398398876E-1,8.225294203E-2,1.702984869E-1
4.761834582E-1,3.808999360E-1,5.516321659E-1,1.827953756E-1
4.861764583E-1,1.416380703E-1,6.027805805E-1,2.752326131E-1
4.961694583E-1,-1.111712754E-1,3.162433207E-1,3.658224344E-1
5.061614583E-1,-3.128193319E-1,-1.870634258E-1,4.015401602E-1
5.161544583E-1,-4.129238129E-1,-6.638065577E-1,4.059631526E-1
5.261474582E-1,-5.104240179E-1,9.433803707E-2,5.412071943E-1
5.361404583E-1,-4.896124899E-1,2.392925620E-1,4.732872546E-1
5.461324583E-1,-4.086911678E-1,-6.691914797E-2,4.731157124E-1
5.561254583E-1,-3.529954255E-1,-1.663520560E-2,4.959547222E-1
5.661184583E-1,-3.156906068E-1,1.348533034E-1,4.341250658E-1
5.761114582E-1,-2.678320110E-1,3.029355109E-1,3.459078670E-1
5.861034583E-1,-2.226700187E-1,5.297264457E-1,2.870065570E-1
5.960964583E-1,-2.273185700E-1,7.515728474E-1,2.721066773E-1
6.060894582E-1,-3.135724068E-1,9.041802287E-1,2.689078450E-1
6.160824583E-1,-3.307165205E-1,9.636070728E-1,1.818831861E-1
6.260744582E-1,-5.425615907E-1,-4.108333588E-1,4.311611131E-2
6.360674583E-1,-9.347932339E-1,-1.363398433E0,-9.018228948E-2
6.460604583E-1,-1.190194011E0,-1.607404232E0,-3.137254715E-1
6.560524583E-1,-1.188494682E0,-1.385934711E0,-5.377101302E-1
6.660454583E-1,-1.084938765E0,-1.169204473E0,-8.742205501E-1
6.760384582E-1,-9.652091265E-1,-1.135996222E0,-1.428373456E0
6.860314583E-1,-8.862565756E-1,-9.791229963E-1,-1.867407322E0
6.960234583E-1,-7.309143543E-1,-7.056720257E-1,-1.959592342E0
7.060164582E-1,-4.784438014E-1,-5.246191025E-1,-1.721679807E0
7.160094583E-1,-2.520602047E-1,-6.296081543E-1,-1.347240925E0
7.260024583E-1,-2.811201513E-1,-1.137486339E0,-9.801115990E-1
7.359944583E-1,-4.826764464E-1,-1.733053327E0,-7.607725859E-1
7.459874583E-1,-8.045441508E-1,-2.189795971E0,-7.960206866E-1
7.559804582E-1,-1.099418998E0,-2.340365171E0,-9.901169538E-1
7.659734583E-1,-1.238179684E0,-1.853383541E0,-1.278798223E0
7.759654582E-1,-1.173030257E0,-1.135691404E0,-1.684262633E0
7.859584583E-1,-1.159104824E0,-6.223953366E-1,-1.912734985E0
7.959514583E-1,-1.224705100E0,-3.528427184E-1,-1.835138440E0
8.059444582E-1,-1.371738911E0,-4.728649259E-1,-1.518974662E0
8.159364583E-1,-1.482364058E0,-3.869862258E-1,-1.207541108E0
8.259294583E-1,-1.230673313E0,-4.567113221E-1,-8.590049148E-1
8.359224583E-1,-8.486724496E-1,-6.712769270E-1,-6.442132592E-1
8.459144583E-1,-3.135232329E-1,-6.530464292E-1,-6.665312648E-1
8.559074582E-1,3.647250235E-1,-4.403597116E-1,-1.020141721E0
8.659004583E-1,1.130444527E0,-3.621364012E-2,-1.709549069E0
8.758934583E-1,1.839839339E0,4.449892044E-1,-2.536117077E0
8.858854583E-1,2.450875521E0,9.550668001E-1,-3.262463570E0
8.958784583E-1,2.908364534E0,1.352132082E0,-3.748745441E0
9.058714582E-1,3.279575109E0,1.769929647E0,-3.914815187E0
9.158644583E-1,3.576138020E0,2.163316250E0,-3.746218443E0
9.258564583E-1,3.861638069E0,2.704370737E0,-3.498616934E0
9.358494583E-1,4.063479424E0,3.349609852E0,-3.425921917E0
9.458424583E-1,4.229277611E0,4.125511169E0,-3.650493860E0
9.558344582E-1,4.371817589E0,5.152153969E0,-4.101705074E0
9.658274583E-1,4.413375854E0,6.135673046E0,-4.569555283E0
9.758204583E-1,4.559569836E0,7.169421673E0,-5.074151039E0
9.858134582E-1,4.781301022E0,7.771174431E0,-5.365777493E0
9.958054583E-1,4.946156025E0,7.514402866E0,-5.474811554E0
1.005798458E0,4.963673592E0,6.724377632E0,-5.418717384E0
1.015791458E0,4.786324501E0,5.995326996E0,-5.188598156E0
1.025784458E0,4.487121105E0,5.554794312E0,-4.906059742E0
1.035776458E0,4.055996895E0,5.163341999E0,-4.634737968E0
1.045769458E0,3.429422617E0,4.816102982E0,-4.372787476E0
1.055762458E0,2.756254435E0,4.587657928E0,-4.131807804E0
1.065755458E0,2.170842171E0,4.426535130E0,-3.954351664E0
1.075747458E0,1.744383216E0,4.427762985E0,-3.866788387E0
1.085740458E0,1.481287837E0,4.428581715E0,-3.926391602E0
1.095733458E0,1.358027577E0,4.191979885E0,-3.968326330E0
1.105725458E0,1.304029465E0,3.547563791E0,-3.800214052E0
1.115718458E0,1.259819150E0,2.504497290E0,-3.349593163E0
1.125711458E0,1.118267894E0,1.526636720E0,-2.653664589E0
1.135704458E0,8.096969724E-1,8.642390966E-1,-1.963488579E0
1.145696458E0,3.907430470E-1,5.746833086E-1,-1.497694135E0
1.155689458E0,-1.070797257E-2,5.414113402E-1,-1.270432234E0
1.165682458E0,-2.880311012E-1,7.068502903E-1,-1.162734389E0
1.175675458E0,-3.978366852E-1,1.035545111E0,-1.013013601E0
1.185667458E0,-3.582282066E-1,1.234719157E0,-8.180442452E-1
1.195660458E0,-2.584928274E-1,1.040642262E0,-5.198327899E-1
1.205653458E0,-1.011409089E-1,4.579134285E-1,-1.034761444E-1
1.215646458E0,-2.703045867E-2,-3.680252433E-1,3.415545821E-1
1.225638458E0,-1.189309359E-1,-1.180837035E0,7.644054294E-1
1.235631458E0,-3.433105052E-1,-1.695912361E0,1.059452534E0
1.245624833E0,-7.043693662E-1,-1.702503920E0,1.186808109E0
1.255616833E0,-9.713863730E-1,-1.419773936E0,1.148312092E0
1.265609833E0,-9.841072559E-1,-1.249611974E0,1.041334867E0
1.275602833E0,-7.062745690E-1,-1.156893492E0,9.687656164E-1
1.285595833E0,-3.151604235E-1,-1.099737763E0,8.498890996E-1
1.295587833E0,-8.904578537E-2,-1.217849135E0,7.786074877E-1
1.305580833E0,-2.434866875E-1,-1.397117496E0,7.909754515E-1
1.315573833E0,-4.727153480E-1,-1.782194853E0,8.879800439E-1
1.325566833E0,-6.381797791E-1,-2.006756783E0,1.071004748E0
1.335558833E0,-7.089349031E-1,-1.676933408E0,1.248514295E0
1.345551833E0,-6.570022702E-1,-1.136105895E0,1.144290209E0
1.355544833E0,-4.845513701E-1,-6.926829219E-1,8.722605705E-1
1.365536833E0,-2.747954428E-1,-5.047830939E-1,6.682301164E-1
1.375529833E0,-1.226022020E-1,-6.811373234E-1,6.442382336E-1
1.385522833E0,-1.264443807E-2,-9.557995796E-1,7.523848414E-1
1.395515833E0,1.697763614E-2,-1.173074126E0,8.017649055E-1
1.405507833E0,-2.325854450E-2,-1.387169957E0,7.767232060E-1
1.415500833E0,-1.417287290E-1,-1.648042917E0,7.428299189E-1
1.425493833E0,-2.013078928E-1,-1.938205957E0,8.081519008E-1
1.435486833E0,-1.011413410E-1,-1.949644446E0,8.589367867E-1
1.445478833E0,4.827485979E-2,-1.714943409E0,7.598840594E-1
1.455471833E0,1.690428257E-1,-1.567716479E0,5.298449993E-1
1.465464833E0,2.817561030E-1,-1.767781019E0,3.363181353E-1
1.475457833E0,3.758892417E-1,-2.508775473E0,2.501797676E-1
1.485449833E0,2.813969851E-1,-3.222318649E0,3.024291992E-1
1.495442833E0,7.919642143E-3,-3.362376451E0,3.353671730E-1
1.505435833E0,-2.390076518E-1,-3.486900806E0,3.019579947E-1
1.515427833E0,-3.007951379E-1,-3.477047682E0,1.971037537E-1
1.525420833E0,-2.267187834E-1,-3.357044220E0,4.796482250E-2
1.535413833E0,-9.365766495E-2,-3.161674976E0,-8.895654976E-2
1.545406833E0,5.002816021E-2,-2.959306002E0,-2.465505153E-1
1.555398833E0,1.840261668E-1,-2.824163437E0,-4.198562801E-1
1.565391833E0,2.616950870E-1,-2.739384174E0,-5.888695121E-1
1.575384833E0,2.269567996E-1,-2.651297331E0,-6.966506243E-1
1.585377833E0,1.132966876E-1,-2.404154539E0,-7.523005605E-1
1.595369833E0,-2.819946036E-2,-2.040813923E0,-7.829626203E-1
1.605362833E0,-2.289336026E-1,-1.658732414E0,-8.793067932E-1
1.615355833E0,-4.934304953E-1,-1.432037711E0,-9.690358639E-1
1.625347833E0,-8.166664243E-1,-1.486135125E0,-9.837861657E-1
1.635340833E0,-1.190322757E0,-1.935404539E0,-9.498766661E-1
1.645333833E0,-1.590958834E0,-2.749090672E0,-8.818987012E-1
1.655326833E0,-2.066873312E0,-3.367074013E0,-8.425065875E-1
1.665318833E0,-2.534950972E0,-3.776288509E0,-8.700687289E-1
1.675311833E0,-2.955897331E0,-4.196104050E0,-9.417186379E-1
1.685304833E0,-3.328550577E0,-4.470703602E0,-1.057447553E0
1.695297833E0,-3.269609690E0,-4.361885548E0,-1.145126462E0
1.705289833E0,-2.660383701E0,-4.034601688E0,-1.135481596E0
1.715282833E0,-1.637153864E0,-2.964209557E0,-1.147228599E0
1.725275833E0,1.957716793E-1,2.162054330E-1,-1.172698975E0
1.735267833E0,1.411236525E0,2.031743288E0,-1.388503790E0
1.745260833E0,1.973667383E0,2.241700888E0,-1.694852352E0
1.755253833E0,2.286706448E0,2.227890730E0,-1.928923965E0
1.765246833E0,2.556668043E0,1.967810750E0,-2.049873114E0
1.775238833E0,2.928815842E0,1.451147199E0,-1.997531533E0
1.785231833E0,3.426994085E0,1.012248755E0,-1.679910898E0
1.795224833E0,3.894179106E0,1.281443715E0,-1.288593411E0
1.805217833E0,3.606693745E0,1.233920813E0,-1.134325266E0
1.815209833E0,2.214563370E0,-9.078396112E-2,-1.205957651E0
1.825202833E0,1.409262419E0,-1.911630034E0,-8.206901550E-1
1.835195833E0,8.589081764E-1,-2.981946707E0,-6.445843577E-1
1.845187833E0,3.985025585E-1,-2.460849285E0,-7.640190721E-1
1.855180833E0,1.633606106E-1,-1.712000847E0,-8.535689712E-1
1.865173833E0,2.373275012E-1,-9.886977673E-1,-7.645536661E-1
1.875166833E0,2.082561702E-1,-6.616895199E-1,-6.777532697E-1
1.885158833E0,-1.140329763E-1,-6.006135941E-1,-6.589701176E-1
1.895151833E0,-4.065569639E-1,-4.840856493E-1,-5.082141757E-1
1.905144833E0,-5.620342493E-1,-4.845714271E-1,-1.839113683E-1
1.915137833E0,-6.598998308E-1,-4.694558680E-1,2.257603221E-2
1.925129833E0,-6.242907047E-1,1.744399071E-1,1.520789601E-2
1.935122833E0,-6.259796619E-1,2.571073472E-1,-5.688147619E-2
1.945115833E0,-5.811053514E-1,2.559145689E-1,-6.789866835E-2
1.955108833E0,-5.491045713E-1,3.461033106E-1,-1.050674543E-2
1.965100833E0,-3.951847255E-1,3.413122594E-1,-2.402876131E-2
1.975093833E0,-2.275509983E-1,2.764501870E-1,-1.676287949E-1
1.985086833E0,-1.176447724E-3,5.649549514E-2,-2.514095902E-1
1.995078833E0,2.031782866E-1,-2.810662985E-1,-2.867295146E-1
2.005071833E0,2.044032365E-1,-8.070390821E-1,-3.803652227E-1
2.015064833E0,4.694810510E-2,-1.427531123E0,-4.847488999E-1
2.025057833E0,-1.642748863E-1,-2.101100445E0,-5.298706889E-1
2.035049833E0,-4.508534074E-1,-2.837822437E0,-5.359197855E-1
2.045042833E0,-8.019494414E-1,-3.784052610E0,-5.579543114E-1
2.055035833E0,-1.275578260E0,-4.703692436E0,-6.019588113E-1
2.065027833E0,-1.830105782E0,-4.997280121E0,-7.568312287E-1
2.075020833E0,-2.198560715E0,-4.941040516E0,-1.068925261E0
2.085013833E0,-2.048660040E0,-4.698694706E0,-1.195830345E0
2.095006833E0,-1.140865684E0,-4.066338539E0,-9.638608098E-1
2.104998833E0,1.012782082E-1,-3.408020973E0,-5.414240956E-1
2.114991833E0,1.162586570E0,-2.444427013E0,-2.589194477E-1
2.124984833E0,1.751834273E0,-1.762116671E0,-3.648352623E-1
2.134977833E0,1.801553369E0,-1.950238585E0,-8.936511874E-1
2.144969833E0,1.071430087E0,-2.435282707E0,-1.668842316E0
2.154962833E0,-7.097577304E-2,-2.905592680E0,-1.864257336E0
2.164955833E0,-1.000555634E0,-2.857393503E0,-1.561955929E0
2.174947833E0,-1.762690067E0,-2.646433830E0,-1.212778449E0
2.184940833E0,-2.026076078E0,-2.605966330E0,-6.464810967E-1
2.194933833E0,-1.866893291E0,-2.796131611E0,1.012366265E-2
2.204926833E0,-1.376518965E0,-3.017978668E0,6.286672950E-1
2.214918833E0,-9.687607884E-1,-3.259780407E0,1.081686735E0
2.224911833E0,-8.697448373E-1,-3.581555843E0,1.391635418E0
2.234904833E0,-1.342313528E0,-3.820461512E0,1.587473392E0
2.244897833E0,-1.870193005E0,-3.687823296E0,1.773348331E0
2.254889500E0,-2.369495392E0,-3.253916979E0,1.748602033E0
2.264882500E0,-2.839440107E0,-2.577415705E0,1.489969373E0
2.274875500E0,-2.882171869E0,-2.117474318E0,1.329967976E0
2.284867500E0,-2.696343184E0,-1.795552969E0,1.329579592E0
2.294860500E0,-2.414616346E0,-1.729503632E0,1.445861220E0
2.304853500E0,-2.209852695E0,-1.945283294E0,1.568219900E0
2.314846500E0,-2.185349464E0,-2.293074846E0,1.837102532E0
2.324838500E0,-3.090037823E0,-1.911968470E0,2.301738739E0
2.334831500E0,-3.521968603E0,-1.745043874E0,2.554149866E0
2.344824500E0,-3.562482595E0,-1.593670607E0,2.692872524E0
2.354816500E0,-3.336176395E0,-1.482305169E0,2.673028946E0
2.364809500E0,-2.422234774E0,-1.660218716E0,2.421165943E0
2.374802500E0,-2.054104805E0,-1.619950056E0,2.244162321E0
2.384795500E0,-2.351093769E0,-1.093850851E0,2.131864786E0
2.394787500E0,-2.502320528E0,-1.036718607E0,2.129324913E0
2.404780500E0,-2.514762163E0,-1.534105301E0,2.220282793E0
2.414773500E0,-2.347349644E0,-2.158417463E0,2.203314543E0
2.424766500E0,-2.361661196E0,-2.328005075E0,1.938749075E0
2.434758500E0,-2.418070316E0,-2.159230947E0,1.899033904E0
2.444751500E0,-2.422379971E0,-1.437701583E0,1.862983227E0
2.454744500E0,-2.325308323E0,-7.873275876E-1,1.897690296E0
2.464737500E0,-1.868815184E0,-1.329447031E-1,1.795737863E0
2.474729500E0,-1.650156856E0,3.881850541E-1,1.720077276E0
2.484722500E0,-1.215899825E0,6.754356623E-1,1.706171513E0
2.494715500E0,-7.109077573E-1,4.614184499E-1,1.689794660E0
2.504707500E0,-3.753174543E-1,2.069453448E-1,1.919132710E0
2.514700500E0,-2.438711375E-2,-8.586442471E-2,2.135810137E0
2.524693500E0,3.543895185E-1,-4.780353606E-1,2.120949745E0
2.534686500E0,5.691925883E-1,-8.095493913E-1,1.956366658E0
2.544678500E0,5.926020741E-1,-8.753252625E-1,1.734335423E0
2.554671500E0,5.943043828E-1,-6.158584952E-1,1.481598496E0
2.564664500E0,5.703175664E-1,-2.654456496E-1,1.114780545E0
2.574656500E0,4.350363910E-1,3.773501143E-2,6.635215282E-1
2.584649500E0,1.029929370E-1,1.424245536E-1,-1.112541631E-1
2.594642500E0,-3.416396379E-1,1.062814742E-1,-1.054084063E0
2.604635500E0,-6.489635706E-1,2.452119887E-1,-1.517916560E0
2.614627500E0,-7.556974888E-1,2.405831516E-1,-1.422229528E0
2.624620500E0,-7.869858146E-1,-7.593757659E-2,-1.321141481E0
2.634613500E0,-7.160463929E-1,-4.733275473E-1,-1.099043131E0
2.644605500E0,-4.801485240E-1,-8.075068593E-1,-8.191988468E-1
2.654598500E0,-4.013325274E-1,-1.130679131E0,-5.810158253E-1
2.664591500E0,-4.064498842E-1,-1.324556112E0,-4.275999963E-1
2.674584500E0,-3.917812109E-1,-1.351061225E0,-3.322641551E-1
2.684576500E0,-4.102104008E-1,-1.298170090E0,-2.338775992E-1
2.694569500E0,-4.342480898E-1,-1.194663405E0,-1.655094624E-1
2.704562500E0,-4.479874969E-1,-1.012214541E0,-6.980358064E-2
2.714555500E0,-4.919762611E-1,-8.222951889E-1,3.301866725E-2
2.724547500E0,-5.265439153E-1,-7.792549729E-1,7.238274068E-2
2.734540500E0,-5.521789789E-1,-8.789533377E-1,6.040276960E-2
2.744533500E0,-5.677791238E-1,-1.035220981E0,2.086863294E-2
2.754525500E0,-7.435940504E-1,-1.308096766E0,3.514104709E-2
2.764518500E0,-1.419467807E0,-2.037595272E0,1.727680415E-1
2.774511500E0,-1.931582570E0,-2.653576136E0,3.678514957E-1
2.784504500E0,-1.227506280E0,-3.104967594E0,4.185890257E-1
2.794496500E0,-3.531028926E-1,-3.121448040E0,4.033131301E-1
2.804489500E0,1.496855617E-1,-2.952654123E0,5.609762073E-1
2.814482500E0,1.070350334E-1,-2.446677446E0,8.346143961E-1
2.824475500E0,-3.395493627E-1,-1.768751383E0,1.041967392E0
2.834467500E0,-7.886648178E-1,-1.076794982E0,1.133607030E0
2.844460500E0,-9.957516193E-1,-6.122006178E-1,1.111961365E0
2.854453500E0,-9.700579643E-1,-5.262284875E-1,9.563466311E-1
2.864445500E0,-7.478309274E-1,-7.519420385E-1,7.766042948E-1
2.874438500E0,-4.961792827E-1,-1.110322595E0,6.062567830E-1
2.884431500E0,-3.699506521E-1,-1.417287230E0,6.419529915E-1
2.894424500E0,-5.127160549E-1,-1.616806984E0,8.404895067E-1
2.904416500E0,-8.107157946E-1,-1.762068987E0,1.090586782E0
2.914409500E0,-1.079709649E0,-1.856030703E0,1.315310717E0
2.924402500E0,-1.386187315E0,-1.930207253E0,1.517170191E0
2.934394500E0,-1.745253325E0,-1.906829000E0,1.691731334E0
2.944387500E0,-2.209047318E0,-1.814212918E0,1.837407947E0
2.954380500E0,-2.564739466E0,-1.742327809E0,1.924680352E0
2.964373500E0,-2.760586262E0,-1.569698691E0,2.021767378E0
2.974365500E0,-2.805081129E0,-1.267404675E0,2.106953859E0
2.984358500E0,-2.612708807E0,-8.872474432E-1,2.117188454E0
2.994351500E0,-2.331011295E0,-5.113521218E-1,1.926469564E0
3.004344500E0,-1.949258208E0,-3.280647695E-1,1.630768895E0
3.014336500E0,-1.500612736E0,-2.542318106E-1,1.540134907E0
3.024329500E0,-1.064585567E0,-1.543833762E-1,1.570857763E0
3.034322500E0,-7.201259136E-1,1.716874093E-1,1.614611387E0
3.044314500E0,-6.218863130E-1,7.168742418E-1,1.690589428E0
3.054307500E0,-6.961994171E-1,1.203507781E0,1.835024118E0
3.064300500E0,-7.504752874E-1,1.372147202E0,1.911272645E0
3.074293500E0,-7.320203781E-1,1.244285583E0,1.841829658E0
3.084285500E0,-7.090483308E-1,1.039310932E0,1.756491423E0
3.094278500E0,-7.351837754E-1,9.269853234E-1,1.580187798E0
3.104271500E0,-8.357996941E-1,9.078142047E-1,1.431784034E0
3.114263500E0,-9.074107409E-1,8.111947179E-1,1.337641001E0
3.124256500E0,-9.008349180E-1,6.456938982E-1,1.142011642E0
3.134249500E0,-9.843271375E-1,6.195227504E-1,9.565930367E-1
3.144242500E0,-1.202567816E0,7.525853515E-1,7.123894095E-1
3.154234500E0,-1.416674852E0,8.995183110E-1,4.361245930E-1
3.164227500E0,-1.445840478E0,7.319069505E-1,2.936451733E-1
3.174220500E0,-1.241511822E0,3.805321157E-1,1.579517871E-1
3.184212500E0,-1.018084884E0,8.637851477E-2,6.268955767E-2
3.194205500E0,-8.341633081E-1,-1.993780397E-2,1.536678430E-2
3.204198500E0,-6.197605729E-1,-7.009614259E-2,-3.049437329E-2
3.214191500E0,-5.259198546E-1,-5.362049863E-2,-1.719263345E-1
3.224183500E0,-6.697698832E-1,2.861128449E-1,-3.876466751E-1
3.234176500E0,-1.000913501E0,6.419141293E-1,-7.739307284E-1
3.244169500E0,-1.190343142E0,7.472860217E-1,-1.077341199E0
3.254162208E0,-1.350442290E0,7.572976351E-1,-1.236202240E0
3.264154208E0,-1.367077708E0,4.409359694E-1,-1.233659506E0
3.274147208E0,-1.289546132E0,-9.109651297E-2,-9.884555936E-1
3.284140208E0,-1.099654198E0,-5.868470669E-1,-3.711682856E-1
3.294132208E0,-8.435518146E-1,-9.475940466E-1,2.141527086E-1
3.304125208E0,-5.730317831E-1,-1.080532551E0,5.999250412E-1
3.314118208E0,-3.824551702E-1,-1.152264476E0,7.911032438E-1
3.324111208E0,-2.710719407E-1,-1.461446404E0,9.069899917E-1
