"Time (s)","X (rad/s)","Y (rad/s)","Z (rad/s)"
1.025050000E-2,-5.157220364E-1,-7.268613577E-1,3.642078340E-1
2.027049998E-2,-6.968108416E-1,-8.233029246E-1,3.037855029E-1
3.029049997E-2,-8.236400485E-1,-7.990505695E-1,1.554722041E-1
4.031150002E-2,-8.552011847E-1,-6.440322399E-1,-3.111285530E-2
5.033150001E-2,-8.275419474E-1,-3.827174306E-1,-2.029272765E-1
6.035250000E-2,-8.032187819E-1,-9.221611917E-2,-2.828980088E-1
7.037249999E-2,-8.226796985E-1,1.371658295E-1,-2.233699113E-1
8.039349999E-2,-8.605841994E-1,2.677182555E-1,-6.659602374E-2
9.041349997E-2,-8.677420020E-1,2.293776125E-1,1.131026447E-1
1.004335000E-1,-8.036570549E-1,4.180904850E-2,2.442532033E-1
1.104545000E-1,-6.954025626E-1,-2.113601565E-1,2.891582549E-1
1.204745000E-1,-5.884122252E-1,-4.725912213E-1,2.557521164E-1
1.304955000E-1,-5.004557967E-1,-6.589475870E-1,1.837533861E-1
1.405155000E-1,-3.861846328E-1,-7.359505296E-1,1.022609323E-1
1.505365000E-1,-2.583514154E-1,-7.352533937E-1,5.150258541E-2
1.605565000E-1,-1.422562301E-1,-6.790444851E-1,4.314851388E-2
1.705775000E-1,-6.085447967E-2,-5.750883222E-1,6.301344931E-2
1.805975000E-1,-3.434190899E-2,-4.574091434E-1,1.016303450E-1
1.906175000E-1,-6.674196571E-2,-3.847591281E-1,1.541941464E-1
2.006385000E-1,-1.326506734E-1,-3.468945920E-1,2.032317370E-1
2.106585000E-1,-2.281515002E-1,-3.403951526E-1,2.345287949E-1
2.206795000E-1,-3.367450833E-1,-3.402958214E-1,2.440389395E-1
2.306995000E-1,-4.425004423E-1,-3.277949393E-1,2.262756377E-1
2.407205000E-1,-5.252088904E-1,-2.911253572E-1,1.901330799E-1
2.507405000E-1,-5.552282929E-1,-2.281568795E-1,1.394486427E-1
2.607605000E-1,-5.439434052E-1,-1.594513208E-1,7.298094034E-2
2.707815000E-1,-4.991002381E-1,-9.734385461E-2,1.485007163E-2
2.808015000E-1,-4.216784239E-1,-5.838633701E-2,-5.882371683E-3
2.908225000E-1,-3.265093565E-1,-2.321611159E-2,3.378491476E-2
3.008425000E-1,-2.303543240E-1,-1.402527653E-2,1.306720525E-1
3.108635000E-1,-1.413906068E-1,-2.778572403E-2,2.489554882E-1
3.208835000E-1,-5.620326474E-2,-5.631430447E-2,3.540068269E-1
3.309045000E-1,1.280529425E-2,-8.823383600E-2,4.349345267E-1
3.409245000E-1,5.137079582E-2,-9.949980676E-2,4.554027915E-1
3.509445000E-1,2.825828642E-2,-9.362094104E-2,4.331147075E-1
3.609655000E-1,-5.225972459E-2,-9.018413723E-2,3.745352924E-1
3.709855000E-1,-1.506637931E-1,-9.916478395E-2,3.153500855E-1
3.810065000E-1,-2.435194254E-1,-1.087436378E-1,2.624399960E-1
3.910265000E-1,-3.102485538E-1,-1.090324745E-1,2.221025974E-1
4.010475000E-1,-3.056293130E-1,-8.595751226E-2,2.068639845E-1
4.110675000E-1,-2.046994716E-1,-3.515234217E-2,2.224332392E-1
4.210875000E-1,-3.827719763E-2,8.319232613E-3,2.683450580E-1
4.311085000E-1,1.534426361E-1,2.139746770E-2,3.327371478E-1
4.411285000E-1,3.049464226E-1,2.202890255E-2,3.987246752E-1
4.511495000E-1,3.608312011E-1,9.768473916E-3,4.340369701E-1
4.611695000E-1,3.144610524E-1,-1.115145441E-2,4.286163747E-1
4.711896250E-1,2.055683136E-1,-2.989666909E-2,3.895979226E-1
4.812096250E-1,5.053586140E-2,-4.084705561E-2,3.315109313E-1
4.912306250E-1,-1.157507449E-1,-5.838205293E-2,2.767657340E-1
5.012506250E-1,-2.640262246E-1,-9.200738370E-2,2.455684245E-1
5.112706250E-1,-3.763796389E-1,-1.369085014E-1,2.593888044E-1
5.212916250E-1,-4.270239174E-1,-1.696938872E-1,2.966421545E-1
5.313116250E-1,-4.004346132E-1,-1.402705610E-1,3.036513031E-1
5.413326250E-1,-3.392098844E-1,-6.940039992E-2,2.691212893E-1
5.513526250E-1,-2.865073383E-1,1.770655438E-2,2.265575677E-1
5.613736250E-1,-2.580759823E-1,9.722454846E-2,2.007797658E-1
5.713936250E-1,-2.554651201E-1,1.999679953E-1,2.477636933E-1
5.814146250E-1,-2.892020643E-1,3.121416569E-1,4.322714806E-1
5.914346250E-1,-4.059841633E-1,1.367392838E-1,6.075598001E-1
6.014546250E-1,-5.154938698E-1,-5.922303721E-2,8.534798622E-1
6.114756250E-1,-6.095674634E-1,-2.381737232E-1,9.890627861E-1
6.214956250E-1,-7.364215255E-1,-5.083882213E-1,8.572533727E-1
6.315166250E-1,-8.849012852E-1,-7.419457436E-1,5.252010226E-1
6.415366250E-1,-1.026850104E0,-8.173406124E-1,1.535880268E-1
6.515576250E-1,-1.140845895E0,-7.361360192E-1,-1.734707654E-1
6.615776250E-1,-1.181744814E0,-5.179493427E-1,-4.403477311E-1
6.715976250E-1,-1.142792106E0,-2.358784974E-1,-6.362144351E-1
6.816186250E-1,-1.036526918E0,6.028179079E-2,-7.142224312E-1
6.916386250E-1,-7.921085954E-1,4.369167089E-1,-6.406209469E-1
7.016596250E-1,-5.563887358E-1,4.742140174E-1,-4.651212990E-1
7.116796250E-1,-3.497518301E-1,3.784627616E-1,-2.181390524E-1
7.217006250E-1,-1.749635041E-1,2.908855081E-1,3.550413623E-2
7.317206250E-1,-8.812195063E-2,8.004879206E-2,2.095915526E-1
7.417406250E-1,-1.038487181E-1,-2.765591443E-1,2.338542789E-1
7.517616250E-1,-2.358579934E-1,-6.106015444E-1,6.930284947E-2
7.617816250E-1,-4.918452799E-1,-8.279096484E-1,-2.466700226E-1
7.718026250E-1,-8.504137397E-1,-9.120669365E-1,-5.623441935E-1
7.818226250E-1,-1.279103041E0,-7.268789411E-1,-6.967219710E-1
7.918436250E-1,-1.748961687E0,-2.885569334E-1,-6.438178420E-1
8.018636250E-1,-2.169914961E0,-7.937923819E-2,-4.366635978E-1
8.118846250E-1,-2.357497931E0,1.671136320E-1,-2.063808441E-1
8.219046250E-1,-2.208510160E0,6.615611911E-1,-8.405706286E-2
8.319246250E-1,-1.898847818E0,8.532069921E-1,1.632598415E-2
8.419456250E-1,-1.568041325E0,4.709469378E-1,4.297623783E-2
8.519656250E-1,-1.150105715E0,1.298235208E-1,-9.370626509E-2
8.619866250E-1,-7.008640766E-1,4.692246672E-3,-2.864866257E-1
8.720066250E-1,-3.332230747E-1,-9.347070754E-2,-5.087354779E-1
8.820276250E-1,-1.545015424E-1,-2.517533004E-1,-6.966356039E-1
8.920476250E-1,-1.450555176E-1,-4.273546636E-1,-7.822597623E-1
9.020676250E-1,-2.238467336E-1,-6.110778451E-1,-7.811747789E-1
9.120886250E-1,-2.999235988E-1,-8.109962940E-1,-7.414580584E-1
9.221086250E-1,-3.427773416E-1,-1.021420002E0,-7.010728121E-1
9.321296250E-1,-3.625719249E-1,-1.228215337E0,-6.632962823E-1
9.421496250E-1,-3.315500915E-1,-1.441281080E0,-6.454946399E-1
9.521706250E-1,-2.605696917E-1,-1.617855787E0,-6.745745540E-1
9.621906250E-1,-1.693476439E-1,-1.688627481E0,-7.332708836E-1
9.722116250E-1,-4.921276867E-2,-1.623963594E0,-7.624647021E-1
9.822316250E-1,1.524825394E-1,-1.143177509E0,-6.695131660E-1
9.922516250E-1,2.728362978E-1,-6.913923025E-1,-5.170347095E-1
1.002272625E0,3.365314007E-1,-4.941282570E-1,-4.287376702E-1
1.012292625E0,3.296360672E-1,-4.429155588E-1,-4.322986007E-1
1.022313625E0,2.601778805E-1,-4.159190953E-1,-4.560001791E-1
1.032333625E0,1.668461263E-1,-3.294574320E-1,-4.867372215E-1
1.042354625E0,6.202117354E-2,-2.066507936E-1,-5.393013358E-1
1.052374625E0,-6.215982139E-2,-3.219235688E-2,-6.502161026E-1
1.062394625E0,-2.055100650E-1,2.044742405E-1,-7.744936347E-1
1.072415625E0,-3.793065250E-1,4.557943046E-1,-8.665956259E-1
1.082435625E0,-6.034210920E-1,6.172279119E-1,-9.412112832E-1
1.092456625E0,-8.348906040E-1,6.663761735E-1,-9.909024835E-1
1.102476625E0,-1.011637568E0,6.502501965E-1,-1.000966907E0
1.112497625E0,-1.073723912E0,5.647045374E-1,-9.777781963E-1
1.122517625E0,-1.000153899E0,3.642159402E-1,-9.500948787E-1
1.132538625E0,-8.197029829E-1,1.964865476E-1,-9.585689306E-1
1.142558625E0,-6.063616872E-1,6.142353266E-2,-1.008687496E0
1.152578625E0,-4.270176888E-1,-5.386403203E-2,-1.058374524E0
1.162599625E0,-3.171923757E-1,-1.572815031E-1,-1.090788960E0
1.172619625E0,-2.797670662E-1,-2.033592463E-1,-1.070653915E0
1.182640625E0,-2.940996885E-1,-1.679517180E-1,-9.822363853E-1
1.192660625E0,-3.214476109E-1,-1.090469286E-1,-8.538296819E-1
1.202681625E0,-3.301944733E-1,-6.282243878E-2,-7.363531590E-1
1.212701625E0,-2.805389762E-1,-9.645761549E-2,-6.587963700E-1
1.222721625E0,-1.665439606E-1,-1.821280271E-1,-6.382231712E-1
1.232742625E0,-1.548437402E-2,-2.897716463E-1,-6.675412059E-1
1.242762625E0,1.455777436E-1,-4.156004190E-1,-7.271456718E-1
1.252783625E0,2.758767903E-1,-4.744919837E-1,-7.677984834E-1
1.262803625E0,3.480156958E-1,-4.814894497E-1,-7.613672018E-1
1.272824625E0,3.622973561E-1,-4.933368564E-1,-7.313211560E-1
1.282844625E0,3.355040848E-1,-5.124120116E-1,-6.944789886E-1
1.292865625E0,3.152163029E-1,-4.627760351E-1,-6.216468811E-1
1.302885625E0,2.737112045E-1,-3.301322460E-1,-5.294844508E-1
1.312905625E0,2.066306919E-1,-1.443400532E-1,-4.535014033E-1
1.322926625E0,1.186454371E-1,3.959782794E-2,-3.945235610E-1
1.332946625E0,2.284428105E-2,1.802836210E-1,-3.583609164E-1
1.342967625E0,-8.039449155E-2,2.339178324E-1,-3.492132425E-1
1.352987625E0,-1.614877135E-1,2.373171151E-1,-3.520645201E-1
1.363008625E0,-2.026383430E-1,2.309862524E-1,-3.427106738E-1
1.373028625E0,-1.939235181E-1,2.404014617E-1,-3.169711232E-1
1.383048625E0,-1.426605880E-1,2.251977473E-1,-2.701546252E-1
1.393069625E0,-5.671176687E-2,1.401114613E-1,-2.419020534E-1
1.403089625E0,5.133827403E-2,-2.012826316E-2,-2.336004376E-1
1.413110625E0,1.583456099E-1,-1.904269159E-1,-2.554903924E-1
1.423130625E0,2.344680727E-1,-3.015451729E-1,-2.830820680E-1
1.433151625E0,2.758360803E-1,-3.186173439E-1,-3.112847209E-1
1.443171625E0,2.638697028E-1,-2.293220907E-1,-3.279446661E-1
1.453191625E0,1.960214525E-1,-3.604460135E-2,-3.331977427E-1
1.463217042E0,7.456985116E-2,1.937017888E-1,-2.934532464E-1
1.473237042E0,-5.534436554E-2,3.758408129E-1,-1.999306083E-1
1.483258042E0,-1.613730639E-1,4.967203736E-1,-9.005337209E-2
1.493278042E0,-2.006491572E-1,4.896151125E-1,-5.404680502E-3
1.503299042E0,-1.607305110E-1,3.952981830E-1,2.856846526E-2
1.513319042E0,-5.150981247E-2,3.172100782E-1,3.523980081E-2
1.523339042E0,8.023276925E-2,2.427345216E-1,3.961963579E-2
1.533360042E0,1.988303065E-1,1.695301831E-1,3.076968715E-2
1.543380042E0,2.654351890E-1,1.070212573E-1,-6.346256472E-3
1.553401042E0,2.648034692E-1,7.465159148E-2,-5.552792177E-2
1.563421042E0,2.230587006E-1,9.469507635E-2,-8.493028581E-2
1.573442042E0,1.669232547E-1,1.523893923E-1,-1.077323854E-1
1.583462042E0,1.269822270E-1,2.017276436E-1,-1.446334124E-1
1.593483042E0,1.092977449E-1,1.855816543E-1,-1.734436303E-1
1.603503042E0,1.146421731E-1,1.831728369E-1,-2.224990577E-1
1.613523042E0,1.535722017E-1,2.683539391E-1,-3.186620772E-1
1.623544042E0,2.324774116E-1,4.530899823E-1,-4.260423481E-1
1.633564042E0,2.903608680E-1,4.599985480E-1,-4.696895778E-1
1.643585042E0,2.395602763E-1,2.877844274E-1,-4.799600542E-1
1.653605042E0,1.647471488E-1,2.226665914E-1,-4.577391446E-1
1.663626042E0,1.644587219E-1,2.606587112E-1,-3.797923923E-1
1.673646042E0,2.612257004E-1,2.039550394E-1,-2.973811626E-1
1.683666042E0,4.651631415E-1,1.398799121E-1,-2.436036915E-1
1.693687042E0,7.111349702E-1,5.456136540E-2,-2.257063985E-1
1.703707042E0,8.985397816E-1,-1.450209767E-1,-2.459898442E-1
1.713728042E0,9.435384274E-1,-4.409001768E-1,-2.973575890E-1
1.723748042E0,8.184100986E-1,-6.911894083E-1,-3.415106833E-1
1.733769042E0,5.735697746E-1,-8.460792899E-1,-3.503012955E-1
1.743789042E0,3.302873373E-1,-7.753917575E-1,-3.247117996E-1
1.753809042E0,1.414692253E-1,-5.155266523E-1,-2.753677368E-1
1.763830042E0,1.699946821E-2,-1.834664494E-1,-2.252867371E-1
1.773850042E0,-7.503908128E-2,4.402633756E-2,-1.747792810E-1
1.783871042E0,-1.100753620E-1,1.456419080E-1,-1.210769042E-1
1.793891042E0,-1.193149313E-1,1.339509636E-1,-7.310663909E-2
1.803912042E0,-1.472608000E-1,1.604083553E-2,-5.827603489E-2
1.813932042E0,-1.944131106E-1,-1.199124828E-1,-8.011976629E-2
1.823952042E0,-2.375187725E-1,-1.732808948E-1,-1.324729770E-1
1.833973042E0,-2.963334620E-1,-9.485484660E-2,-1.743092537E-1
1.843993042E0,-3.408735096E-1,5.696527194E-3,-1.905034035E-1
1.854014042E0,-3.374435306E-1,4.143866897E-2,-1.910047233E-1
1.864034042E0,-2.963469625E-1,4.442302044E-3,-1.885506213E-1
1.874055042E0,-2.384029329E-1,-9.854029864E-2,-1.841667145E-1
1.884075042E0,-1.922045499E-1,-1.800439507E-1,-1.848223805E-1
1.894096042E0,-1.898887902E-1,-1.744529456E-1,-1.981039941E-1
1.904116042E0,-2.309856266E-1,-7.562142611E-2,-2.216247618E-1
1.914136042E0,-3.011762798E-1,6.299172342E-2,-2.373831272E-1
1.924157042E0,-3.468566835E-1,1.967750788E-1,-2.372702062E-1
1.934177042E0,-2.890247703E-1,2.424122542E-1,-2.129060030E-1
1.944198042E0,-1.170484796E-1,1.237804070E-1,-1.847851425E-1
1.954218042E0,1.184588224E-1,-8.345065266E-2,-1.965613216E-1
1.964239042E0,2.927840352E-1,-2.554780841E-1,-2.456143498E-1
1.974259042E0,3.465551138E-1,-3.511166275E-1,-2.939557135E-1
1.984279042E0,2.986152768E-1,-3.561217785E-1,-3.058629632E-1
1.994300042E0,1.576950699E-1,-2.955964506E-1,-2.922489941E-1
2.004320042E0,-2.477407455E-2,-1.702616960E-1,-2.525519133E-1
2.014341042E0,-2.097596079E-1,2.262573456E-3,-2.057042271E-1
2.024361042E0,-3.800016344E-1,1.957841069E-1,-1.491037905E-1
2.034382042E0,-5.141249299E-1,3.022441268E-1,-9.681526572E-2
2.044402042E0,-5.813205242E-1,3.088474274E-1,-5.937788263E-2
2.054422042E0,-5.763365626E-1,2.102238238E-1,-3.897404671E-2
2.064443042E0,-5.092952251E-1,6.578702480E-2,-4.916143790E-2
2.074463042E0,-4.067736268E-1,-2.359628305E-2,-6.924089789E-2
2.084484042E0,-3.260374963E-1,-1.772401296E-2,-8.509603143E-2
2.094504042E0,-3.008197248E-1,4.712345079E-2,-8.185878396E-2
2.104525042E0,-3.235412836E-1,1.337398440E-1,-6.971636415E-2
2.114545042E0,-4.066247344E-1,1.939302832E-1,-4.908133298E-2
2.124565042E0,-4.886769950E-1,2.303088009E-1,-1.899480075E-2
2.134586042E0,-5.340449810E-1,2.485411018E-1,2.095993236E-2
2.144606042E0,-5.313134193E-1,2.207353115E-1,6.911575049E-2
2.154627042E0,-4.916017056E-1,1.697780192E-1,1.238274500E-1
2.164647042E0,-4.139468372E-1,1.525574774E-1,1.699771136E-1
2.174668042E0,-3.254504502E-1,2.074594200E-1,1.869029105E-1
2.184688042E0,-2.582754195E-1,2.890584171E-1,2.130831182E-1
2.194709042E0,-2.081518918E-1,3.406722546E-1,2.262113541E-1
2.204729042E0,-1.330384910E-1,2.973839045E-1,2.125288397E-1
2.214749042E0,-1.629007980E-3,1.868579686E-1,1.483513862E-1
2.224770042E0,1.685643047E-1,2.379728016E-3,5.391729623E-2
2.234790042E0,3.482348323E-1,-1.349069029E-1,-1.293401048E-2
2.244811042E0,4.899221659E-1,-2.178601027E-1,-2.432514913E-2
2.254831042E0,5.619634986E-1,-1.919073910E-1,3.798789112E-3
2.264852042E0,5.243138671E-1,-1.006650925E-1,2.015326172E-2
2.274872042E0,3.497998118E-1,-1.669811085E-2,3.403978050E-2
2.284892042E0,5.469172448E-2,2.006270140E-1,5.426329002E-2
2.294913042E0,-2.635970116E-1,5.096105933E-1,8.197985590E-2
2.304933042E0,-5.298641324E-1,7.670615911E-1,1.199509352E-1
2.314954042E0,-6.966279745E-1,8.352103233E-1,1.504647583E-1
2.324974042E0,-7.164269686E-1,7.204927802E-1,1.693284512E-1
2.334995042E0,-5.955112576E-1,5.234542489E-1,1.535088718E-1
2.345015042E0,-4.111363292E-1,3.852580488E-1,7.991162688E-2
2.355035042E0,-2.085204422E-1,3.752747774E-1,9.073584341E-3
2.365056042E0,-2.499628812E-3,4.119342566E-1,-2.649053559E-2
2.375076042E0,1.262907684E-1,5.996532440E-1,-7.021861523E-2
2.385097042E0,1.690190583E-1,6.370964646E-1,-8.759228140E-2
2.395117042E0,1.427656263E-1,5.131599903E-1,-8.441523463E-2
2.405138042E0,6.684023142E-2,3.951022923E-1,-5.510262400E-2
2.415158042E0,-5.141573399E-2,3.641749024E-1,9.572405368E-3
2.425178042E0,-1.930482388E-1,3.847323656E-1,8.409004658E-2
2.435199042E0,-3.208363950E-1,3.466834724E-1,1.013083458E-1
2.445219042E0,-4.275239706E-1,2.444694787E-1,7.930637896E-2
2.455240042E0,-4.675222933E-1,2.557909191E-1,5.181960389E-2
2.465260250E0,-4.636340737E-1,3.442912400E-1,-2.398096491E-3
2.475281250E0,-4.590713978E-1,4.058902264E-1,5.456343293E-2
2.485301250E0,-3.594143093E-1,3.139605820E-1,5.544866621E-2
2.495321250E0,-1.475996971E-1,8.060122281E-2,7.952407748E-2
2.505342250E0,1.045337468E-1,3.099212423E-2,1.330336481E-1
2.515362250E0,2.669514120E-1,6.560575962E-2,1.408287138E-1
2.525383250E0,3.741260767E-1,1.088552549E-2,1.539234817E-1
2.535403250E0,4.464715421E-1,-8.497229218E-2,1.619978845E-1
2.545424250E0,4.977035820E-1,-2.757619321E-1,1.685505956E-1
2.555444250E0,5.146132112E-1,-4.319757819E-1,1.172540784E-1
2.565464250E0,4.766607583E-1,-3.979432285E-1,7.713435590E-2
2.575485250E0,4.068701565E-1,-1.900033355E-1,5.938038602E-2
2.585505250E0,3.655685186E-1,-4.113530740E-2,5.000046641E-2
2.595526250E0,3.598379791E-1,4.285123199E-2,1.772687957E-2
2.605546250E0,4.042352736E-1,5.900064111E-2,1.320403256E-2
2.615567250E0,5.264068842E-1,5.380370468E-2,3.382581472E-2
2.625587250E0,6.915007234E-1,3.125178814E-2,6.537575275E-2
2.635607250E0,8.261057734E-1,-2.510719188E-2,9.020070732E-2
2.645628250E0,9.011052251E-1,-1.143822074E-1,8.065673709E-2
2.655648250E0,8.913358450E-1,-1.934884191E-1,4.509292170E-2
2.665669250E0,7.987793088E-1,-2.412977517E-1,1.505805831E-2
2.675689250E0,6.426590681E-1,-2.355377972E-1,-1.378683932E-2
2.685710250E0,4.433043599E-1,-1.488612145E-1,-3.190512210E-2
2.695730250E0,2.159202248E-1,9.219427593E-3,-1.782983355E-2
2.705750250E0,-2.406360954E-2,1.643083394E-1,2.928601392E-2
2.715771250E0,-2.382270098E-1,2.104997933E-1,8.350964636E-2
2.725791250E0,-4.058314562E-1,9.210682660E-2,1.086344421E-1
2.735812250E0,-4.771681130E-1,-8.989926428E-2,9.904781729E-2
2.745832250E0,-4.581430256E-1,-2.701713145E-1,9.996847063E-2
2.755853250E0,-3.944467306E-1,-4.241457880E-1,9.839615226E-2
2.765873250E0,-3.383403420E-1,-4.484503269E-1,3.519907966E-2
2.775893250E0,-3.070174456E-1,-3.774864972E-1,-5.192466080E-2
2.785914250E0,-3.113647997E-1,-3.667837679E-1,-8.239281923E-2
2.795934250E0,-3.095856905E-1,-4.072601497E-1,-3.704798222E-2
2.805955250E0,-2.509066761E-1,-5.019605756E-1,2.607878856E-2
2.815975250E0,7.805833593E-3,-7.776939273E-1,-6.919755600E-3
2.825996250E0,2.178757191E-1,-5.952961445E-1,6.501489133E-2
2.836016250E0,1.732267588E-1,-1.815032661E-1,2.864285111E-1
2.846036250E0,6.657674164E-2,-1.611428559E-1,4.611550272E-1
2.856057250E0,-7.709310204E-2,-1.812126338E-1,5.635663867E-1
2.866077250E0,-2.130096704E-1,-2.781008482E-1,3.885508776E-1
2.876098250E0,-4.511908889E-1,-3.362003863E-1,-1.674849913E-2
2.886118250E0,-7.551710606E-1,-1.286139339E-1,-2.803452611E-1
2.896139250E0,-1.029693007E0,2.850278616E-1,-4.012872875E-1
2.906159250E0,-1.257382631E0,5.405528545E-1,-3.510960340E-1
2.916179250E0,-1.425206542E0,4.813760221E-1,-2.167812586E-1
2.926200250E0,-1.532665133E0,2.204317898E-1,-6.517042220E-2
2.936220250E0,-1.624164939E0,4.305619746E-2,4.649569839E-2
2.946241250E0,-1.717053890E0,9.358955547E-3,1.009456217E-1
2.956261250E0,-1.804644227E0,3.079497814E-2,1.494290829E-1
2.966282250E0,-1.873609185E0,1.327767372E-1,1.878917813E-1
2.976302250E0,-1.898118734E0,2.925469279E-1,2.427543104E-1
2.986322250E0,-1.878208637E0,4.220519364E-1,3.316322565E-1
2.996343250E0,-1.869139910E0,5.650475025E-1,4.247489274E-1
3.006363250E0,-1.872543573E0,7.065271139E-1,5.101226568E-1
3.016384250E0,-1.880122066E0,9.147106409E-1,6.178532839E-1
3.026404250E0,-1.882338881E0,1.160741806E0,7.557147741E-1
3.036425250E0,-1.879579306E0,1.324667096E0,9.229408503E-1
3.046445250E0,-1.868991375E0,1.326556921E0,1.076624393E0
3.056465250E0,-1.797979712E0,1.452731252E0,1.137854576E0
3.066486250E0,-1.624032855E0,1.726583242E0,1.146346092E0
3.076506250E0,-1.350289226E0,1.972099066E0,1.141799808E0
3.086527250E0,-1.008977175E0,2.191316843E0,1.129069090E0
3.096547250E0,-6.591936946E-1,2.333665848E0,1.103659511E0
3.106568250E0,-3.412857652E-1,2.373974800E0,1.054686069E0
3.116588250E0,-9.898104519E-2,2.325568438E0,1.039763093E0
3.126609250E0,3.465424478E-2,2.162036419E0,1.032153726E0
3.136629250E0,5.268778279E-2,2.007668972E0,9.810802341E-1
3.146649250E0,-4.238520563E-2,1.916712523E0,9.389114976E-1
3.156670250E0,-2.367775440E-1,1.921033144E0,9.618414640E-1
3.166690250E0,-4.834706783E-1,2.019835234E0,1.008547783E0
3.176711250E0,-7.031348944E-1,2.206453323E0,9.950449467E-1
3.186731250E0,-8.517935872E-1,2.463762760E0,9.234858155E-1
3.196751250E0,-9.044347405E-1,2.670123339E0,7.748427391E-1
3.206772250E0,-8.336931467E-1,2.659923077E0,7.150174975E-1
3.216792250E0,-7.088825107E-1,2.440495014E0,8.169593215E-1
3.226813250E0,-6.603575349E-1,2.187074184E0,9.148496389E-1
3.236833250E0,-7.347222567E-1,2.024206877E0,9.136078954E-1
3.246854250E0,-8.686398268E-1,2.003078222E0,8.286821246E-1
3.256874250E0,-1.030403376E0,2.187808037E0,6.661047935E-1
3.266894250E0,-1.223529339E0,2.555945158E0,4.807860553E-1
3.276915250E0,-1.421120167E0,3.026775122E0,3.695127070E-1
3.286935250E0,-1.580809712E0,3.515659571E0,3.848613203E-1
