"Time (s)","X (rad/s)","Y (rad/s)","Z (rad/s)"
1.745658333E-2,2.093587667E-1,1.469018608E-1,-1.282339692E-1
2.743858332E-2,4.318309948E-2,1.322387606E-1,-1.750701815E-1
3.741958336E-2,-1.289015859E-1,5.435886979E-2,-1.923735291E-1
4.740058334E-2,-2.270811349E-1,-5.021707341E-2,-1.943887472E-1
5.738258333E-2,-2.456183434E-1,-1.625477523E-1,-2.232061923E-1
6.736358337E-2,-2.256374359E-1,-1.987116188E-1,-2.516753972E-1
7.734458335E-2,-1.583188474E-1,-1.798479110E-1,-2.678818107E-1
8.732658334E-2,-4.603758454E-2,-1.080805138E-1,-2.528642416E-1
9.730758332E-2,8.176992089E-2,-4.281901568E-2,-2.542386055E-1
1.072895834E-1,1.855565012E-1,-1.546677202E-3,-2.749404311E-1
1.172705833E-1,2.402325422E-1,-4.235497490E-2,-3.537336886E-1
1.272515833E-1,2.606344819E-1,-1.274293959E-1,-4.973824620E-1
1.372335834E-1,2.273814380E-1,-2.280333787E-1,-6.822344065E-1
1.472145834E-1,1.597685665E-1,-3.522434831E-1,-8.625924587E-1
1.571955833E-1,6.021508574E-2,-4.923186302E-1,-1.006892443E0
1.671775833E-1,-8.231196553E-2,-6.861677170E-1,-1.157880664E0
1.771585834E-1,-2.476694882E-1,-9.219784141E-1,-1.311841607E0
1.871395833E-1,-3.973564506E-1,-1.147935271E0,-1.470628858E0
1.971215833E-1,-4.984119833E-1,-1.258914113E0,-1.590666175E0
2.071025834E-1,-5.588409901E-1,-1.437259436E0,-1.623660684E0
2.170835834E-1,-6.869933605E-1,-1.238563657E0,-1.718771338E0
2.270655833E-1,-7.071846724E-1,-1.032748222E0,-1.893004656E0
2.370465833E-1,-6.153370142E-1,-9.977458119E-1,-2.099854231E0
2.470275834E-1,-5.607515574E-1,-9.259246588E-1,-2.239106894E0
2.570095834E-1,-5.396486521E-1,-8.324376345E-1,-2.282242298E0
2.669905833E-1,-5.037095547E-1,-7.676719427E-1,-2.286578178E0
2.769715834E-1,-4.666977525E-1,-7.130311728E-1,-2.269151449E0
2.869535834E-1,-4.034489989E-1,-7.037463188E-1,-2.244649887E0
2.969345833E-1,-3.280617893E-1,-7.212669849E-1,-2.256593227E0
3.069155833E-1,-2.438944578E-1,-7.104114294E-1,-2.258254051E0
3.168975834E-1,-1.520812064E-1,-6.955103278E-1,-2.269140244E0
3.268785833E-1,-9.172465652E-2,-6.943574548E-1,-2.277973413E0
3.368595833E-1,-8.005627245E-2,-7.364259362E-1,-2.260021210E0
3.468415833E-1,-9.431004524E-2,-8.313189149E-1,-2.212117672E0
3.568225834E-1,-1.278488338E-1,-9.425893426E-1,-2.155955791E0
3.668045833E-1,-1.442959756E-1,-1.022933364E0,-2.100423574E0
3.767855833E-1,-1.375451237E-1,-1.004848719E0,-2.022960901E0
3.867665834E-1,-1.030007452E-1,-9.295097589E-1,-1.918784142E0
3.967485834E-1,-7.320979983E-2,-8.258108497E-1,-1.794933915E0
4.067295833E-1,-7.643622160E-2,-7.627059221E-1,-1.652130485E0
4.167105833E-1,-1.103281528E-1,-7.813996673E-1,-1.512131095E0
4.266925834E-1,-1.579534709E-1,-8.655928373E-1,-1.413424850E0
4.366735833E-1,-2.218781263E-1,-9.371048212E-1,-1.345105767E0
4.466545833E-1,-2.807925940E-1,-1.023692727E0,-1.309421778E0
4.566365833E-1,-3.388255239E-1,-1.066492796E0,-1.281810522E0
4.666175834E-1,-3.864780068E-1,-1.072305083E0,-1.247677565E0
4.765985833E-1,-4.157695472E-1,-1.105203152E0,-1.218237996E0
4.865805833E-1,-4.342156649E-1,-1.101580739E0,-1.182181954E0
4.965615834E-1,-4.476071000E-1,-1.057829380E0,-1.117715597E0
5.065425833E-1,-4.663573503E-1,-1.105144143E0,-1.088529110E0
5.165245833E-1,-5.772844553E-1,-1.195517540E0,-1.124981284E0
5.265055834E-1,-7.110110521E-1,-1.299827099E0,-1.149327636E0
5.364865834E-1,-7.810194492E-1,-1.354913473E0,-1.227355719E0
5.464685833E-1,-7.513148189E-1,-1.376588464E0,-1.287397742E0
5.564495833E-1,-6.929910183E-1,-1.248634100E0,-1.304700732E0
5.664305834E-1,-6.376289725E-1,-9.377632737E-1,-1.276392102E0
5.764125834E-1,-5.399628878E-1,-5.221248269E-1,-1.210358739E0
5.863935833E-1,-4.364122748E-1,-1.641296744E-1,-1.152214766E0
5.963745834E-1,-3.560667932E-1,-1.699952036E-2,-1.123035550E0
6.063565834E-1,-3.403064907E-1,-1.015330479E-1,-1.093268871E0
6.163375833E-1,-4.037719965E-1,-3.520644009E-1,-1.058434010E0
6.263185833E-1,-4.539480805E-1,-7.488175631E-1,-1.022064090E0
6.363005834E-1,-3.910141289E-1,-1.169279933E0,-9.601280093E-1
6.462815834E-1,-2.169779092E-1,-1.485114813E0,-8.914735913E-1
6.562635833E-1,4.831048846E-2,-1.643680811E0,-8.438820243E-1
6.662445833E-1,3.507758081E-1,-1.642160058E0,-8.079645038E-1
6.762255834E-1,5.474068522E-1,-1.523164511E0,-7.514351606E-1
6.862075833E-1,6.286300421E-1,-1.455393910E0,-7.427612543E-1
6.961885833E-1,5.935384035E-1,-1.399484396E0,-7.809723020E-1
7.061695834E-1,4.366196096E-1,-1.351029515E0,-8.100556731E-1
7.161515834E-1,2.506633401E-1,-1.334483147E0,-7.974798679E-1
7.261325833E-1,9.927088022E-2,-1.268770099E0,-7.006057501E-1
7.361135833E-1,-2.530966327E-2,-1.193419218E0,-5.430999994E-1
7.460955834E-1,-4.024093971E-2,-1.026228309E0,-3.402790129E-1
7.560765833E-1,1.093940884E-1,-8.059756160E-1,-1.873446703E-1
7.660575833E-1,3.469973207E-1,-6.754900217E-1,-1.513778865E-1
7.760395833E-1,4.880988002E-1,-7.081071138E-1,-3.160665631E-1
7.860205834E-1,4.652454257E-1,-9.851597548E-1,-4.280183911E-1
7.960015833E-1,2.998106480E-1,-1.249539971E0,-4.467965961E-1
8.059835833E-1,5.652289465E-2,-1.307538867E0,-3.874850571E-1
8.159645834E-1,-9.561977535E-2,-1.240606546E0,-2.739987373E-1
8.259455833E-1,-9.871170670E-2,-1.104234338E0,-1.686600596E-1
8.359275833E-1,-6.328518502E-3,-8.357825875E-1,-8.284328133E-2
8.459085833E-1,7.751950622E-2,-4.860040843E-1,3.911850508E-3
8.558905834E-1,1.191707999E-1,-1.621939540E-1,5.096277688E-3
8.658715833E-1,1.104545370E-1,6.735989451E-2,-1.071703993E-2
8.758525833E-1,1.477809064E-2,1.824305505E-1,-1.767150313E-2
8.858335834E-1,-1.263771653E-1,2.575599253E-1,-2.788605727E-2
8.958155834E-1,-2.466742843E-1,1.828300357E-1,-1.746073179E-2
9.057965833E-1,-3.726593554E-1,9.628714621E-2,2.376553416E-2
9.157785833E-1,-3.477862477E-1,-8.191707544E-3,6.738430262E-2
9.257595834E-1,-2.950676382E-1,-1.865151078E-1,1.028299108E-1
9.357405833E-1,-3.015862703E-1,-3.601728380E-1,1.040872037E-1
9.457228750E-1,-3.120016456E-1,-4.512116611E-1,7.558739185E-2
9.557038750E-1,-3.219568133E-1,-4.005844593E-1,7.888615131E-2
9.656848750E-1,-2.910462916E-1,-2.811800241E-1,8.864211291E-2
9.756668750E-1,-2.481712252E-1,-2.408886552E-1,7.237699628E-2
9.856478750E-1,-2.718709707E-1,-2.041018754E-1,5.206540227E-4
9.956288750E-1,-2.438409477E-1,-2.511655688E-1,-8.110156655E-2
1.005610875E0,-2.073511034E-1,-2.162379324E-1,-1.273881048E-1
1.015591875E0,-2.041542232E-1,-1.629287452E-1,-1.301277578E-1
1.025572875E0,-8.234469593E-2,-2.281586081E-1,-6.048955396E-2
1.035554875E0,5.010697525E-3,-2.411006391E-1,1.290195622E-2
1.045535875E0,6.151205674E-2,-2.301633060E-1,7.197512686E-2
1.055516875E0,8.505626023E-2,-1.471278667E-1,2.115740031E-1
1.065498875E0,5.422484875E-2,-6.277357787E-2,3.485169113E-1
1.075479875E0,1.196118295E-1,-6.716779619E-2,4.070238173E-1
1.085460875E0,1.511548460E-1,-2.496249527E-1,4.473134577E-1
1.095442875E0,3.197137713E-1,-4.258317351E-1,3.286722302E-1
1.105423875E0,7.420240045E-1,-6.038259864E-1,-2.704219893E-2
1.115404875E0,1.251696825E0,-9.941816330E-1,-5.335940123E-1
1.125386875E0,1.693434238E0,-1.562337995E0,-9.285189509E-1
1.135367875E0,2.035563946E0,-2.090338707E0,-1.130115986E0
1.145349875E0,2.205247879E0,-2.512260199E0,-1.209958911E0
1.155330875E0,2.234726667E0,-2.849461079E0,-1.290515065E0
1.165311875E0,2.250037432E0,-3.029447317E0,-1.439265132E0
1.175293875E0,2.198807716E0,-3.310506821E0,-1.539944649E0
1.185274875E0,2.019414902E0,-3.650950193E0,-1.529141545E0
1.195255875E0,1.760807991E0,-3.959089041E0,-1.432187796E0
1.205237875E0,1.430792332E0,-4.324597836E0,-1.281788111E0
1.215218875E0,1.057195783E0,-4.633271694E0,-1.153195739E0
1.225199875E0,7.309111357E-1,-4.664975166E0,-1.030384898E0
1.235181875E0,5.516985059E-1,-4.564480782E0,-8.884249926E-1
1.245162875E0,5.434477925E-1,-4.302915573E0,-7.765567899E-1
1.255143875E0,6.353553534E-1,-3.970966101E0,-6.914137602E-1
1.265125875E0,7.393991947E-1,-3.776655436E0,-6.766175032E-1
1.275106875E0,8.097063303E-1,-3.601333857E0,-7.770378590E-1
1.285087875E0,8.281450272E-1,-3.423006296E0,-8.948348165E-1
1.295069875E0,7.766013741E-1,-3.291720152E0,-9.858940244E-1
1.305050875E0,6.733655334E-1,-3.169684410E0,-1.098083496E0
1.315031875E0,5.478430390E-1,-3.091980219E0,-1.203700066E0
1.325013875E0,4.471206963E-1,-3.083528996E0,-1.248095155E0
1.334994875E0,3.935400546E-1,-3.067835331E0,-1.244097948E0
1.344975875E0,3.833481371E-1,-2.972301006E0,-1.246188283E0
1.354957875E0,4.327830672E-1,-2.817425489E0,-1.246755838E0
1.364938875E0,5.173234940E-1,-2.673336506E0,-1.257469177E0
1.374919875E0,6.026448011E-1,-2.493147850E0,-1.275624871E0
1.384901875E0,6.541162133E-1,-2.241197586E0,-1.268664360E0
1.394882875E0,6.664029956E-1,-1.958437681E0,-1.202522755E0
1.404864875E0,6.160679460E-1,-1.654424071E0,-1.068990707E0
1.414845875E0,5.281434059E-1,-1.353458524E0,-9.106428027E-1
1.424826875E0,4.131084383E-1,-1.188008308E0,-7.549397945E-1
1.434808875E0,2.777961493E-1,-1.134458780E0,-6.141317487E-1
1.444789875E0,1.241075173E-1,-1.153334260E0,-4.867729545E-1
1.454770875E0,5.481112748E-5,-1.318528891E0,-3.608600497E-1
1.464752875E0,-1.503354907E-1,-1.520463824E0,-2.736263573E-1
1.474733875E0,-2.865779996E-1,-1.669863820E0,-2.403702289E-1
1.484714875E0,-4.022585452E-1,-1.818450809E0,-2.759764493E-1
1.494696875E0,-4.752235711E-1,-1.859353662E0,-3.657483160E-1
1.504677875E0,-5.037843585E-1,-1.780440450E0,-4.261786342E-1
1.514658875E0,-4.719265699E-1,-1.630753636E0,-4.110514522E-1
1.524640875E0,-3.975316882E-1,-1.403749824E0,-3.329449296E-1
1.534621875E0,-2.799233198E-1,-1.096424580E0,-2.358522117E-1
1.544602875E0,-1.104378775E-1,-7.811782360E-1,-1.424631476E-1
1.554584875E0,1.031513587E-1,-5.543029904E-1,-3.672330827E-2
1.564565875E0,3.345392942E-1,-4.374431968E-1,6.153082475E-2
1.574546875E0,5.592592359E-1,-3.588162065E-1,1.307251751E-1
1.584528875E0,7.509226799E-1,-2.998615503E-1,1.902470887E-1
1.594509875E0,8.754574656E-1,-2.575707436E-1,2.264120132E-1
1.604490875E0,9.424737692E-1,-2.434221655E-1,2.424090803E-1
1.614472875E0,9.465178251E-1,-2.527491152E-1,2.287120819E-1
1.624453875E0,9.212177396E-1,-3.011682928E-1,1.681059897E-1
1.634435875E0,8.847587705E-1,-3.570984900E-1,1.006521136E-1
1.644416875E0,8.667105436E-1,-4.118999541E-1,4.961076751E-2
1.654397875E0,8.636606932E-1,-4.893929064E-1,2.879930474E-2
1.664379875E0,8.635671735E-1,-5.635068417E-1,2.648927644E-2
1.674360875E0,8.521129489E-1,-5.802569985E-1,1.836428046E-2
1.684341875E0,8.208327889E-1,-5.570736527E-1,5.352608860E-3
1.694323875E0,7.603713274E-1,-5.240792632E-1,8.060788736E-3
1.704304875E0,6.728880405E-1,-4.610955417E-1,-1.337712444E-2
1.714285875E0,5.579407215E-1,-3.809348345E-1,-5.422576517E-2
1.724267875E0,4.541645348E-1,-3.220006526E-1,-9.601928294E-2
1.734248875E0,3.645784557E-1,-2.656191885E-1,-1.521091312E-1
1.744229875E0,3.024588823E-1,-1.392183751E-1,-2.310588062E-1
1.754211875E0,2.649306655E-1,1.126120426E-2,-3.114320338E-1
1.764192875E0,2.549507320E-1,1.647961587E-1,-3.913529515E-1
1.774173875E0,2.637783289E-1,2.905810475E-1,-4.451325238E-1
1.784155875E0,2.997147739E-1,3.276069760E-1,-4.532120228E-1
1.794136875E0,3.564603031E-1,2.875563502E-1,-4.386288226E-1
1.804117875E0,4.091887772E-1,2.152376771E-1,-4.457685053E-1
1.814099875E0,4.785068929E-1,9.828759730E-2,-4.393191338E-1
1.824080875E0,5.699683428E-1,-5.469209701E-2,-3.865683079E-1
1.834062875E0,6.996768117E-1,-1.842444688E-1,-3.360453546E-1
1.844043875E0,8.442568779E-1,-2.091308981E-1,-3.010697961E-1
1.854024875E0,9.958043098E-1,-1.660656631E-1,-2.484254539E-1
1.864006875E0,1.153572679E0,-9.972713143E-2,-1.716039181E-1
1.873987875E0,1.273774981E0,2.508896030E-2,-1.030062735E-1
1.883968875E0,1.388666153E0,8.922054619E-2,9.681128897E-3
1.893950875E0,1.445934415E0,1.707099825E-1,1.116383821E-2
1.903931875E0,1.462792039E0,2.981376946E-1,-1.080816016E-1
1.913912875E0,1.472012997E0,3.631914258E-1,-2.323107123E-1
1.923894875E0,1.447872162E0,4.162226915E-1,-3.331305385E-1
1.933875875E0,1.405776978E0,4.683203995E-1,-4.057279825E-1
1.943856083E0,1.353619218E0,5.233176351E-1,-4.620099068E-1
1.953838083E0,1.292082548E0,5.357096195E-1,-5.188449025E-1
1.963819083E0,1.131370425E0,5.690254569E-1,-5.743073821E-1
1.973800083E0,9.416196346E-1,5.201401711E-1,-5.983250737E-1
1.983782083E0,7.265534401E-1,3.923552930E-1,-6.190338135E-1
1.993763083E0,4.976105094E-1,2.538715303E-1,-6.887906194E-1
2.003744083E0,3.039060235E-1,7.464292645E-2,-7.497847080E-1
2.013726083E0,1.907629967E-1,-1.595271975E-1,-7.665078640E-1
2.023707083E0,1.557424217E-1,-3.896062076E-1,-7.546141744E-1
2.033688083E0,1.522709876E-1,-5.480492115E-1,-7.266044617E-1
2.043670083E0,1.624099165E-1,-6.175366640E-1,-6.845323443E-1
2.053651083E0,1.697935164E-1,-5.721855164E-1,-6.378136873E-1
2.063633083E0,1.919536740E-1,-5.141687989E-1,-5.752069950E-1
2.073614083E0,2.237598002E-1,-4.337042570E-1,-5.599506497E-1
2.083595083E0,2.589090168E-1,-3.044504225E-1,-5.616558790E-1
2.093577083E0,2.770390213E-1,-1.690719724E-1,-5.655596852E-1
2.103558083E0,2.489330769E-1,-1.095210239E-1,-6.098387241E-1
2.113539083E0,1.815636456E-1,-1.216628179E-1,-7.167387605E-1
2.123521083E0,9.269102663E-2,-1.593718529E-1,-8.612820506E-1
2.133502083E0,9.052053094E-3,-2.463353574E-1,-9.640982747E-1
2.143483083E0,-7.068645209E-2,-3.221057355E-1,-1.041129947E0
2.153465083E0,-1.306850612E-1,-3.113064170E-1,-1.099104285E0
2.163446083E0,-1.413214654E-1,-3.662964404E-1,-1.093276739E0
2.173427083E0,-1.466800123E-1,-5.074861646E-1,-1.058538437E0
2.183409083E0,-1.762453616E-1,-6.269508004E-1,-1.026671290E0
2.193390083E0,-2.291970253E-1,-7.251328230E-1,-9.669366479E-1
2.203371083E0,-2.916979194E-1,-8.516631126E-1,-9.210175872E-1
2.213353083E0,-3.756231964E-1,-9.317398667E-1,-9.603578448E-1
2.223334083E0,-4.563417435E-1,-9.135816097E-1,-1.055601239E0
2.233315083E0,-5.198866129E-1,-9.082345963E-1,-1.165357828E0
2.243297083E0,-5.415053368E-1,-8.585320115E-1,-1.233826637E0
2.253278083E0,-5.082302690E-1,-7.529358268E-1,-1.243694901E0
2.263260083E0,-4.403443933E-1,-6.224526763E-1,-1.222735763E0
2.273241083E0,-3.743797541E-1,-5.560247898E-1,-1.189150810E0
2.283222083E0,-3.119158447E-1,-5.209333301E-1,-1.160765529E0
2.293204083E0,-2.315339148E-1,-4.432347119E-1,-1.139498234E0
2.303185083E0,-1.467327476E-1,-3.701370656E-1,-1.105036974E0
2.313166083E0,-8.023869991E-2,-4.054537117E-1,-1.040838599E0
2.323148083E0,-1.029658467E-1,-4.527432024E-1,-9.521763921E-1
2.333129083E0,-1.605859697E-1,-5.410424471E-1,-8.073537946E-1
2.343110083E0,-2.358596921E-1,-5.752835274E-1,-6.429563165E-1
2.353092083E0,-2.619016767E-1,-5.945671797E-1,-5.084061623E-1
2.363073083E0,-2.717958689E-1,-6.111104488E-1,-4.168408215E-1
2.373054083E0,-2.615262270E-1,-5.112399459E-1,-3.487944901E-1
2.383036083E0,-2.790447474E-1,-4.110782146E-1,-2.879354060E-1
2.393017083E0,-3.083999455E-1,-3.348999023E-1,-2.698238194E-1
2.402998083E0,-2.619509697E-1,-3.201734126E-1,-2.994733453E-1
2.412980083E0,-1.988558769E-1,-4.232914150E-1,-3.466392756E-1
2.422961083E0,-1.261984408E-1,-4.751026928E-1,-3.558162749E-1
2.432942083E0,-5.302116647E-2,-4.837644696E-1,-3.580659926E-1
2.442924083E0,1.195490267E-2,-4.685045481E-1,-3.821899593E-1
2.452905083E0,3.059462085E-2,-5.221664310E-1,-4.418991506E-1
2.462887083E0,6.194854900E-2,-5.550367832E-1,-5.342423916E-1
2.472868083E0,9.073918313E-2,-6.085483432E-1,-6.713976860E-1
2.482849083E0,5.456306413E-2,-6.135273576E-1,-7.327790260E-1
2.492831083E0,-1.581948251E-2,-6.086948514E-1,-7.071858644E-1
2.502812083E0,-6.355504692E-2,-4.691675901E-1,-6.551333070E-1
2.512793083E0,-9.133580327E-2,-2.673454881E-1,-6.835623980E-1
2.522775083E0,-1.136174053E-1,-1.677411646E-1,-7.440785170E-1
2.532756083E0,-1.219256818E-1,-1.327482611E-1,-7.700856328E-1
2.542737083E0,-1.372018307E-1,-1.024289578E-1,-7.738612294E-1
2.552719083E0,-1.632052213E-1,-6.286374480E-2,-7.790659070E-1
2.562700083E0,-2.242906839E-1,-1.046900153E-1,-7.797897458E-1
2.572681083E0,-2.836815417E-1,-1.546691209E-1,-7.873804569E-1
2.582663083E0,-3.110351562E-1,-6.304306537E-2,-8.855403066E-1
2.592644083E0,-3.252987564E-1,8.088550530E-3,-1.015449047E0
2.602625083E0,-2.898963094E-1,-3.221786022E-2,-1.093219280E0
2.612607083E0,-2.502951026E-1,-1.029087454E-1,-1.096179366E0
2.622588083E0,-2.469491065E-1,-2.068612427E-1,-1.049887538E0
2.632569083E0,-2.988829017E-1,-3.176219165E-1,-9.681065679E-1
2.642551083E0,-4.486787915E-1,-3.448705971E-1,-9.423341155E-1
2.652532083E0,-6.783695221E-1,-3.699333966E-1,-8.885219097E-1
2.662513083E0,-9.597572684E-1,-3.712948263E-1,-8.276742697E-1
2.672495083E0,-1.290153265E0,-5.856601596E-1,-7.208198309E-1
2.682476083E0,-1.558101416E0,-8.736464381E-1,-6.192082763E-1
2.692458083E0,-1.573928237E0,-8.945413232E-1,-6.758528352E-1
2.702439083E0,-1.355671287E0,-7.031942606E-1,-8.870521784E-1
2.712420083E0,-9.852585196E-1,-7.278900743E-1,-1.125613451E0
2.722402083E0,-4.988535047E-1,-1.046469927E0,-1.268568754E0
2.732383083E0,1.612793803E-1,-1.231877446E0,-1.382829547E0
2.742364083E0,1.014700770E0,-1.338862181E0,-1.522109151E0
2.752346083E0,2.243519545E0,-8.026645184E-1,-1.695263863E0
2.762327083E0,3.475510836E0,-2.391113937E-1,-1.864444852E0
2.772308083E0,3.215437651E0,-8.229204416E-1,1.130774021E-1
2.782290083E0,7.418631315E-1,-2.444703102E0,5.487885952E0
2.792271083E0,1.300791144E0,-1.294887066E0,6.440469265E0
2.802252083E0,2.322394848E0,9.381985068E-1,3.761979580E0
2.812234083E0,1.102039099E0,9.825214148E-1,1.964425683E0
2.822215083E0,-5.900055170E-1,1.491796523E-1,1.493451238E0
2.832196083E0,-1.154403448E0,2.957774699E-2,1.832966447E0
2.842178083E0,-8.834182024E-1,4.123911560E-1,2.570993185E0
2.852159083E0,-7.979397774E-1,3.387756050E-1,3.027437925E0
2.862141083E0,-8.905909061E-1,-4.566128924E-2,2.999942303E0
2.872122083E0,-8.939303160E-1,-2.915412784E-1,2.701539278E0
2.882103083E0,-7.439346910E-1,-2.309783548E-1,2.410278082E0
2.892085083E0,-5.375074148E-1,-1.012943685E-1,2.227738619E0
2.902066083E0,-3.704843223E-1,-1.505127698E-1,2.068418980E0
2.912047083E0,-1.978217810E-1,-3.261292875E-1,1.843055844E0
2.922029083E0,-8.552254178E-3,-5.005250573E-1,1.537030339E0
2.932010083E0,1.231117770E-1,-5.547507405E-1,1.170381904E0
2.941991083E0,1.831029356E-1,-5.032819510E-1,7.970727682E-1
2.951974125E0,2.016760856E-1,-3.116225302E-1,4.260313809E-1
2.961955125E0,1.825284958E-1,-8.602721617E-3,7.096915692E-2
2.971936125E0,2.781401202E-2,-5.160800740E-2,-5.367365107E-2
2.981918125E0,-1.394194514E-1,-1.474112272E-1,-5.529098958E-2
2.991899125E0,-2.129423916E-1,4.304490983E-2,-3.302645311E-2
3.001880125E0,-2.138601094E-1,2.221078724E-1,-6.444643252E-3
3.011862125E0,-1.804097742E-1,2.411233783E-1,6.942303851E-3
3.021843125E0,-1.289311349E-1,2.071566135E-1,1.663434505E-2
3.031825125E0,-5.490054935E-2,1.672651321E-1,3.172309697E-2
3.041806125E0,1.566043124E-2,1.264878660E-1,4.467431456E-2
3.051787125E0,4.331572354E-2,9.096251428E-2,5.258282274E-2
3.061769125E0,2.716897801E-2,8.460953832E-2,5.285765976E-2
3.071750125E0,-2.751474641E-2,1.142760962E-1,4.710824415E-2
3.081731125E0,-1.029844657E-1,1.666290313E-1,3.411122039E-2
3.091713125E0,-2.222770303E-1,2.430602163E-1,1.726960205E-2
3.101694125E0,-3.554135263E-1,3.067592680E-1,-1.730701700E-2
3.111675125E0,-4.143746197E-1,2.928755879E-1,-4.153821990E-2
3.121657125E0,-3.314776123E-1,1.739835441E-1,-1.782889664E-2
3.131638125E0,-1.344702393E-1,2.818307653E-2,4.130495246E-3
3.141619125E0,3.393075615E-2,-3.639085591E-2,1.064884849E-2
3.151601125E0,1.222087070E-1,-3.813827410E-2,1.921292208E-2
3.161582125E0,1.622839421E-1,-3.768207505E-2,2.946289442E-2
3.171563125E0,1.825916320E-1,-3.277295083E-2,3.021410853E-2
3.181545125E0,1.899355650E-1,-4.028066620E-2,3.127671033E-2
3.191526125E0,1.909606010E-1,-4.644147679E-2,4.176723585E-2
3.201507125E0,1.676302403E-1,-3.923309967E-2,5.131466687E-2
3.211489125E0,1.459132284E-1,-3.115842305E-2,4.416653141E-2
3.221470125E0,1.266963929E-1,-2.826303430E-2,4.070148990E-2
3.231452125E0,9.838778526E-2,-2.130179852E-2,4.669440165E-2
3.241433125E0,5.505682155E-2,2.190266363E-2,3.896990418E-2
3.251414125E0,3.184418008E-2,6.659470499E-2,3.759300336E-2
3.261396125E0,1.106113475E-2,9.537069499E-2,3.223312646E-2
3.271377125E0,1.713978592E-3,1.063949391E-1,2.680852264E-2
3.281358125E0,4.045309965E-3,9.735669941E-2,1.117869839E-2
