Time(s),X(rad/s),Y(rad/s),Z(rad/s)
0.00946776,-2.922550917,-1.670333385,-0.542485535
0.02750948,-3.004576206,-1.6458323,-0.552072883
0.04555119,-3.001380205,-1.518000722,-0.623445571
0.06359286,-3.012032986,-1.391234279,-0.686296105
0.08163411,-2.919354916,-1.28364265,-0.612792909
0.09967536,-2.65090847,-0.781903505,-0.256994844
0.11771494,-2.33026433,-0.581633925,0.127565324
0.13575651,-2.233325243,-0.371776998,0.332095951
0.15379994,-2.09910202,0.104395837,0.251135916
0.17184119,-1.95529139,0.479368627,0.032756858
0.18988244,-1.890310287,0.449541271,-0.283626437
0.20792369,-1.809350252,0.061785292,-0.47430864
0.22596494,-1.686844945,-0.586960256,-0.49987495
0.24400619,-1.481249094,-0.929975152,-0.442350715
0.26204744,-1.408811212,-1.005608916,-0.329432786
0.28008885,-1.219194293,-0.956606746,-0.232493788
0.29813057,-1.225585818,-1.030109882,-0.111053735
0.31617229,-1.184040546,-0.779772997,0.039148439
0.33421401,-0.936899364,-0.340884358,0.08921583
0.35225572,-0.757935107,-0.025566328,0.063649505
0.37027885,-0.686562419,0.178964287,0.170175865
0.38833859,-0.704671919,0.201334834,0.228765369
0.40637984,-0.673779249,0.120374791,0.294811726
0.42442109,-0.483097047,-0.076698981,0.411990702
0.44246234,0.090014778,-0.414387554,0.501472831
0.46050359,0.838895142,-0.458063364,0.471645474
0.47854484,1.508945942,-0.17470324,0.516386569
0.49658609,2.112950325,0.123570584,0.623978198
0.51462734,2.700975895,0.34408015,0.6708498
0.53266901,3.400854111,0.693486631,0.68363297
0.55071072,3.912180662,0.747815073,0.704938233
0.56875244,3.681018591,-0.379233867,0.348074883
0.58679416,2.835199118,-2.027196646,-0.015180007
0.60483562,2.597645283,-1.216531038,-0.207992733
0.62287687,3.447725773,0.372842282,-0.060986344
0.64091812,4.35106945,2.175268412,0.095607415
0.65895937,4.942290783,3.18620348,0.336356998
0.67700062,4.819785118,1.980325103,0.464188635
0.69504187,3.839742899,0.524109721,0.577106595
0.71308312,3.678888083,0.983238339,0.80933404
0.73112458,3.813111305,1.057806849,1.129978418
0.7491663,3.438138485,0.942758322,1.344096422
0.76720802,2.910832882,1.052480459,1.412273288
0.78524974,2.373939991,1.243162632,1.388837457
0.80329145,1.676192284,1.303882718,1.296159506
0.8213327,0.924116194,1.037566781,1.082041502
0.83937395,0.256195903,0.641288698,0.685763478
0.8574152,-0.397875965,0.054328445,0.217047468
0.87545645,-0.761130869,-0.220509574,-0.265516967
0.8934977,-1.081775188,-0.516652882,-0.778974056
0.91153895,-1.64210391,-0.762728751,-1.324388981
0.9295802,-1.805089235,-1.208009005,-1.621597528
0.94762182,-2.4889884,-0.823448777,-1.568334341
0.96566354,-2.95663929,-1.559545994,-1.353151083
0.98370526,-2.589123249,-1.212270021,-0.846085668
1.00174698,-2.422942162,-0.617852926,-0.76192981
1.01978848,-2.578470707,-0.492151797,-0.817323506
1.03782974,-2.614689589,-0.727575064,-0.69268769
1.05587099,-2.643451691,-1.238901615,-0.483896017
1.07391224,-2.866091728,-1.859950304,-0.263386428
1.09195349,-3.166496277,-2.341449499,-0.270843267
1.10999536,-3.352917194,-2.243445158,-0.34328121
1.12803698,-3.184605598,-1.875929236,-0.47430864
1.14607823,-2.890592813,-1.596830249,-0.568051815
1.16411948,-2.569948435,-1.295360565,-0.432763368
1.18216072,-2.409093618,-0.980042577,-0.099335834
1.20020198,-2.344112635,-0.828775108,0.198937982
1.21824322,-2.210954666,-0.578438163,0.165914819
1.23628448,-2.003228188,-0.258859068,-0.003462107
1.25432598,-1.599493384,0.140614808,-0.253799051
1.2723677,-1.259674311,0.022370536,-0.478569686
1.29040942,-1.082840443,-0.745684564,-0.673512936
1.30845114,-1.01040256,-1.349689007,-0.638359249
1.32649276,-1.029577255,-1.181377411,-0.528637111
1.34453401,-0.777109802,-1.111070037,-0.294279069
1.36257526,-0.545947611,-1.124918461,-0.155794814
1.38061651,-0.360591739,-0.904408813,-0.070573717
1.39865776,-0.229564309,-0.481499165,0.026365275
1.41669901,-0.176301137,-0.135288477,0.058323186
1.43474026,-0.03781686,0.127831638,0.080693722
1.45278151,0.046338968,0.17470324,0.130761117
1.47082312,0.03249054,0.058589499,0.245809585
1.48886484,-0.02929475,0.006391582,0.345944375
1.50690656,-0.09108004,-0.135288477,0.406664401
1.52494828,-0.066578977,-0.478303373,0.454601258
1.54298979,-0.013315796,-0.458063364,0.505733907
1.56103104,-0.294545382,0.008522109,0.48336339
1.57907229,-0.836764574,-0.248206422,0.442883372
1.59711354,-1.304415345,-0.605069757,0.375771761
1.61515479,-1.666604996,-0.316383302,0.236222208
1.63319604,-2.063948393,-0.129962161,0.093476884
1.65123729,-2.100167274,-0.435692817,0.029561065
1.66927854,-1.908419847,-0.608265519,0.096672677
1.68732026,-1.64210391,-0.674311876,0.266049594
1.70536198,-1.238368988,-0.452737033,0.486559182
1.72340369,-0.650343478,-0.281229615,0.587759197
1.74144541,-0.036751594,-0.377103329,0.488689691
1.75948682,0.665257156,-0.599743426,0.240483269
1.77752807,1.424790144,-0.516652882,-0.045007389
1.79556932,1.957421899,-0.821318269,-0.227167472
1.81361057,2.165148258,-1.682051301,-0.385891765
1.83165182,2.264217854,-1.625592351,-0.607466579
1.84969307,2.337721109,-0.35686332,-0.713992953
1.86773541,2.153430462,0.651941359,-0.74914664
1.88577666,1.897767186,0.708400309,-0.644750834
1.90381791,1.92439878,0.289751709,-0.451938093
1.92185916,2.076731443,0.501739204,-0.221841157
1.93990041,2.164083004,1.635179639,-0.074834771
1.95794166,2.299371481,1.876994491,-0.042876862
1.97598291,2.2194767,0.418648601,-0.007723161
1.99402416,1.919072509,-0.837297201,0.033822119
2.01206583,1.894571424,-0.894821465,0.096672677
2.03010755,2.004293442,-0.786164582,0.16484955
2.04814927,1.970205069,-0.373907536,0.249005377
2.06619099,1.877527118,-0.027696855,0.389620185
2.08423244,1.804023981,0.111852683,0.576041341
2.10227369,1.613341808,0.226901159,0.692155063
2.12029755,1.359809041,0.171507448,0.743287683
2.13835677,1.08497107,0.232227475,0.712395072
2.15639807,0.736629784,0.189616934,0.634630799
2.17443932,0.385092795,0.169376925,0.518517077
2.19248057,0.039947387,0.177899033,0.351270676
2.21052182,-0.338221192,0.145941123,0.109455839
2.22856307,-0.761130869,-0.050067391,-0.109988473
2.24660432,-1.12332046,-0.341949642,-0.230363265
2.26464557,-1.298023701,-0.659398198,-0.258060128
2.28268703,-1.243695259,-0.940627813,-0.310258031
2.30072874,-1.091362596,-1.161137342,-0.434893876
2.31877046,-0.907072008,-1.091895223,-0.540354967
2.33681218,-0.719585598,-0.802143514,-0.58722657
2.3548538,-0.493749708,-0.398408592,-0.46152547
2.37289505,-0.09108004,-0.160854816,-0.202666402
2.3909363,0.421311766,-0.108656891,0.100933731
2.40897755,0.765391946,0.202400088,0.28309381
2.4270188,0.616255045,0.532631815,0.235156953
2.44506005,0.251934856,0.680703461,0.108390577
2.4631013,-0.188019037,0.707335055,-0.140881121
2.48114255,-0.457530737,0.42610547,-0.411458075
2.49918411,-0.206128508,-0.31851384,-0.620249748
2.51722583,-0.194410607,-0.624244511,-0.535028637
2.53526755,-0.244478002,-0.332362264,-0.398674905
2.55330927,-0.407463342,-0.409061253,-0.285756975
2.57135078,-0.650343478,-1.033305764,-0.34860754
2.58939203,-1.252217412,-1.257011056,-0.531832874
2.60743328,-1.878592372,-1.700160742,-0.70547086
2.62547453,-2.047969341,-2.398973703,-0.806670904
2.64351578,-2.114015579,-2.779272795,-0.803475082
2.66155703,-2.045838833,-2.506565332,-0.777908802
2.67959828,-1.839177728,-2.173137903,-0.715058208
2.69763953,-1.637842894,-2.371276855,-0.653272927
2.71568119,-1.694301844,-2.972085476,-0.529702365
2.73372291,-1.773131371,-3.508978367,-0.397609651
2.75176463,-1.772066116,-3.685812235,-0.333693832
2.76980635,-1.619733334,-3.497260571,-0.280430645
2.78784776,-1.39283216,-3.214965582,-0.237820104
2.80588901,-1.314002752,-3.075416088,-0.268712759
2.82393026,-1.284175277,-3.224553108,-0.369912803
2.84197151,-1.209606886,-3.379016161,-0.432763368
2.86000588,-1.004011035,-3.170224667,-0.481765479
2.87804218,-0.801610887,-2.967824459,-0.476439178
2.8960963,-0.790958226,-3.005108833,-0.446611792
2.91413755,-0.750478208,-3.190464497,-0.411458075
2.9321788,-0.767522454,-3.268228769,-0.376304388
2.95022005,-0.806937218,-2.966759205,-0.366717011
2.9682613,-0.800545633,-2.654637098,-0.260190636
2.98630255,-0.643951893,-2.606700182,-0.105727419
3.0043438,-0.594949722,-2.734531879,-0.003462107
3.02238505,-0.604537129,-2.663159132,0.039148439
3.04042666,-0.573644459,-2.49591279,0.058323186
3.05846838,-0.472444415,-2.548110723,-0.027963171
3.0765101,-0.3531349,-2.526805401,-0.167512715
3.09455182,-0.277501166,-2.44691062,-0.230363265
3.11259328,-0.095341094,-2.379798889,-0.23675485
3.13063453,0.168844283,-2.312687397,-0.187752724
3.14867578,0.562991858,-2.240249395,-0.177100077
3.16671703,1.096688867,-2.253032684,-0.160055861
3.18475828,2.018141985,-2.407495737,-0.064182132
3.20279953,3.31350255,-2.274337769,-0.038615808
3.22084078,4.062382698,-1.831188202,-0.059921078
3.23888203,4.041077614,-1.832253456,0.179763243
3.25692364,4.197671413,-2.532131672,0.419447571
3.27496536,3.787544966,-2.63439703,0.349140167
3.29300708,3.342264652,-1.967541933,0.325704366
3.3110488,3.048251867,-1.640506029,0.11158637
3.32909026,3.840808153,-0.227966413,-0.384826481
3.34713151,5.069056988,0.634897113,-0.169643238
3.36517276,5.022185326,0.453802317,0.511060238
3.38321401,4.187018871,0.374972791,0.880706728
3.40125526,3.992075443,0.650876105,1.038365722
3.41929651,4.108189106,0.874581456,1.579519629
3.43733776,3.899397612,0.794686675,2.05462718
3.45537901,3.612841606,0.911865652,2.224004269
3.47342062,3.132407665,1.013065696,2.040778875
3.49146234,2.468748569,0.941693068,1.827726126
3.50950406,1.812546134,0.428235978,1.588041782
3.52754578,1.21812892,-0.017044218,1.395229101
3.54558724,0.684431911,-0.262054861,1.241831064
3.56362848,0.296675921,-0.361124367,1.10973835
3.58166974,0.09108004,-0.451671779,0.946753085
3.59971098,0.009054741,-0.20666115,0.753940344
3.61775208,0.083623193,-0.110787422,0.55793184
3.63579328,0.219976947,-0.143810585,0.26498434
3.65383583,0.320111722,0.200269565,-0.010918953
3.67187708,0.194410607,0.635962367,-0.313453823
3.68991833,-0.072970562,0.918257237,-0.582965553
3.70795958,-0.371244371,0.951280415,-0.756603479
3.72600083,-0.682301343,0.666855037,-0.675643444
3.74404208,-1.050882578,0.371776998,-0.067377925
3.76208333,-0.54807812,-0.752076149,0.056192659
3.78012458,-0.701476097,-0.452737033,-0.789626658
3.79816599,-1.608015418,0.053263184,-0.946220458
3.8162077,-2.133190393,-0.662593961,-0.884435117
3.83424942,-2.285523176,-1.059937358,-0.803475082
3.85229114,-2.476205349,-1.210139513,-0.882304609
3.87031474,-2.495380163,-1.444497466,-0.876978278
3.88837401,-2.522011757,-1.521196485,-0.809866667
3.90641552,-2.608298063,-1.577655435,-0.84928143
3.92445677,-2.790458202,-1.90788722,-0.954742551
3.94249802,-2.93107295,-2.076198816,-0.853542507
3.96053927,-2.928942442,-2.208291531,-0.538224459
3.97858052,-2.986466646,-2.17739892,-0.260190636
3.99662177,-3.049317122,-1.931322932,-0.184556931
4.01466302,-2.887397051,-1.717205048,0.015712639
4.03270427,-2.682866573,-1.407213211,0.214916945
4.05074593,-2.466618061,-1.062067866,0.240483269
4.06878765,-2.402702093,-1.017326832,0.192546397
4.08682937,-2.445312738,-1.00667417,-0.019441061
4.10487109,-2.466618061,-0.855406702,-0.266582221
4.1229125,-2.354765177,-0.778707743,-0.354999095
4.14095375,-2.131059885,-0.961933076,-0.331563294
4.158995,-1.961683035,-1.262337446,-0.300670654
4.17703625,-1.791240811,-1.431714296,-0.177100077
4.1950775,-1.494032264,-1.416800618,-0.050333709
4.21311874,-1.294827938,-1.394430161,0.009321057
4.23116,-1.275653243,-1.459411144,0.067910559
4.24920124,-1.226651073,-1.494564891,0.122239001
4.26724286,-1.113733172,-1.18883419,0.105194785
4.28528458,-0.968857288,-0.83197093,0.141413748
4.3033263,-0.858069837,-0.54434973,0.337422252
4.32136802,-0.823981404,-0.197073773,0.511060238
4.33940948,-0.819720388,-0.192812726,0.478037059
4.35745072,-0.643951893,-0.464454949,0.468449682
4.37549198,-0.060187396,-0.793621421,0.478037059
4.39353323,0.760065615,-1.097221494,0.384293854
4.41157448,1.335307956,-0.885234058,0.387489647
4.42961573,1.791240811,-0.068176873,0.611195028
4.44765698,2.395245314,0.771250904,0.806138277
4.46569823,3.061035156,1.159006834,0.863662481
4.48373974,3.624559641,0.634897113,0.718786657
4.50178145,3.629885912,-0.672181368,0.331030667
4.51982317,2.975813866,-1.590438604,0.080693722
4.53786489,2.660495996,-1.185638428,-0.098270573
4.55590645,3.307111025,-0.168311656,-0.158990592
4.5739477,4.077296734,1.882320881,0.154196918
4.59198895,4.785696983,2.849580288,0.178697974
4.61002312,4.601406097,1.568068027,0.323573828
4.62805875,3.835481644,0.776577175,0.482298106
4.64611348,3.623494387,1.118526816,0.69641608
4.66415474,3.61390686,1.121722579,0.982972026
4.68219598,3.363569975,1.2634027,1.139565825
4.70023724,2.960900307,1.52013123,1.189633131
4.71827848,2.427203178,1.622396469,1.270593166
4.73631974,1.76780498,1.549958587,1.270593166
4.75436099,1.132907867,1.186703682,1.119325757
4.77240224,0.458595991,0.619983435,0.818921447
4.7904438,-0.168844283,0.302534878,0.355531752
4.80848552,-0.701476097,-0.074568458,-0.199470609
4.82652724,-0.969922543,-0.458063364,-0.67457819
4.84456895,-1.270326853,-0.517718136,-1.10600996
4.86261041,-1.979792476,-0.568850756,-1.708949208
4.88065166,-2.087383986,-1.022653103,-2.006157637
4.89869291,-2.439986467,-0.773381412,-1.479917526
4.91673416,-2.077796698,-1.362472177,-1.157142639
4.93477541,-2.366483212,-0.490021288,-0.712927699
4.95281666,-2.320676804,-0.215183258,-0.863129854
4.97085791,-2.387788534,-0.394147545,-0.677774012
4.98889916,-2.596580029,-0.725444555,-0.566986561
5.00694078,-2.749978065,-1.177116275,-0.526506543
5.0249825,-2.901245594,-1.524392247,-0.542485535
5.04302421,-3.199519396,-1.649028063,-0.771517217
5.06106593,-3.286870956,-1.528653383,-0.908936203
5.07910734,-3.081274986,-1.279381633,-0.920654118
5.09714859,-2.89485383,-1.253815293,-0.827976167
5.11518968,-2.673279047,-1.199486852,-0.526506543
5.13323005,-2.451704264,-1.090829968,-0.20479694
5.15127307,-2.154495716,-0.565654993,0.210655883
5.16931437,-1.766739726,0.015978955,0.371510685
5.18735562,-1.565404892,0.42610547,0.33955279
5.20539687,-1.439703822,0.506000221,0.138217956
5.22343812,-1.327851176,0.252467483,-0.123836897
5.24147937,-1.226651073,-0.067111611,-0.296409607
5.25952062,-1.242630005,-0.422909677,-0.370978057
5.27756187,-1.314002752,-0.691356123,-0.447677046
5.29560312,-1.186171055,-0.485760212,-0.281495929
5.31364474,-0.991227806,-0.376038075,-0.080161087
5.33168645,-0.825046718,-0.388821214,0.087085299
5.34972817,-0.737695098,-0.374972791,0.109455839
5.36776781,-0.712128758,-0.348341197,0.06684529
5.38580937,-0.733434022,-0.134223223,0.146740064
5.40385281,-0.721716106,0.264185369,0.280963272
5.42189406,-0.761130869,0.297208548,0.29587698
5.43993531,-0.700410843,0.270576954,0.268180132
5.45797656,-0.608798146,0.222640097,0.239418
5.47601781,-0.40959388,0.020240009,0.214916945
5.49405906,0.173105344,-0.301469624,0.269245386
5.51210031,0.963530958,-0.597612917,0.260723263
5.53014156,1.637842894,-0.502804458,0.340618044
5.54818286,2.190714598,0.107591629,0.505733907
5.56622458,2.693519115,0.511326551,0.644218206
5.5842663,3.270891905,0.737162411,0.749679267
5.60230802,3.750260592,0.905474067,0.818921447
5.62033198,3.683149099,-0.012783164,0.49614653
5.63839114,3.140929937,-1.429583788,0.139283225
5.65643239,2.739325523,-1.20161736,-0.023702117
5.67447364,3.06955719,-0.393082291,-0.057790551
5.69251489,3.888744831,1.349689007,0.119043209
5.71055614,4.730303288,2.810165405,0.172306389
5.72859739,4.722846508,2.798447609,0.315051734
5.74663864,4.192345142,0.87564671,0.391750693
5.76467989,3.540403605,0.695617139,0.380032808
5.78272114,3.491401672,1.027979374,0.485493898
5.80076286,3.35185194,1.01413095,0.806138277
5.81880458,3.020555019,1.184573174,0.893489897
5.8368463,2.654104471,1.277251124,0.902011991
5.85488802,2.201367378,1.35821116,0.917990923
5.87292932,1.628255486,1.309208989,0.898816168
5.89097057,1.009337306,0.911865652,0.781637192
5.90901182,0.36591807,0.637027681,0.492950738
5.92705307,-0.190149561,0.428235978,0.154196918
5.94509432,-0.571513951,0.030892646,-0.215449572
5.96313557,-0.751543522,-0.196008503,-0.643685579
5.98117682,-1.090297341,-0.516652882,-1.198687911
5.99921807,-1.64210391,-0.729705572,-1.762212396
6.01725979,-2.043708324,-0.911865652,-1.951829314
6.03530151,-2.492184401,-1.169659495,-1.793105006
6.05334323,-2.192845106,-1.460476398,-1.525723815
6.07138494,-2.178996801,-0.534762323,-0.964329898
6.08942625,-2.231194735,0.038349491,-0.930241466
6.1074675,-2.531599045,-0.343014896,-0.77471298
6.12550875,-2.613624334,-0.951280415,-0.344346464
6.14355,-2.592319012,-1.342232227,-0.048203181
6.16159125,-2.748912811,-1.588308096,0.104129523
6.1796325,-3.080209732,-1.634114385,-0.162186384
6.19767374,-3.122820377,-1.407213211,-0.38695702
6.215715,-2.928942442,-1.141962647,-0.565921307
6.23375661,-2.833068609,-1.144093156,-0.74382031
6.25179833,-2.851178169,-1.373124838,-0.91852355
6.26984005,-2.696714878,-1.742771268,-0.798148811
6.28788177,-2.534794807,-1.138766885,-0.357129633
6.30592317,-2.090579987,-0.536892891,0.041278966
6.32396442,-1.694301844,-0.112917945,0.231961161
6.34200567,-1.530251265,0.353667527,0.182959035
6.36004531,-1.325720549,0.428235978,0.108390577
6.37806624,-1.116928935,0.027696855,0.013582111
6.39613026,-1.022120476,-0.370711744,-0.195209563
6.41417151,-1.080709934,-0.638092935,-0.409327567
6.43221276,-1.252217412,-0.879907787,-0.498809695
6.45025401,-1.147821546,-1.057806849,-0.391218066
6.46829526,-1.089232087,-0.830905616,-0.307062239
6.48633651,-0.981640458,-0.561393917,-0.127032682
6.50437776,-0.969922543,-0.316383302,0.017843166
6.52241901,-0.931573033,0.106526367,0.151001126
6.54046036,-0.834634066,0.268446446,0.269245386
6.55850208,-0.806937218,0.267381162,0.238352746
6.5765438,-0.732368767,0.213052735,0.197872728
6.59458552,-0.445812821,0.086286359,0.269245386
6.61262718,-0.045273706,-0.005326318,0.3651191
6.63066843,0.450073898,-0.15020217,0.394946486
6.64870968,1.127581596,-0.430366516,0.288420141
6.66675093,1.779522896,-0.298273832,0.316116989
6.68479218,2.316415787,0.271642238,0.569649756
6.70283343,2.854373932,0.781903505,0.744352996
6.72087468,3.46263957,1.106808901,0.792289853
6.73891593,3.649060488,0.810665608,0.636761367
6.75695718,3.315633059,-0.676442385,0.155262172
6.7749989,2.842656136,-1.135571003,-0.206927463
6.79304062,3.022685528,-0.332362264,-0.391218066
6.81108234,3.740673304,0.459128618,-0.177100077
6.82912406,4.737760067,2.517217875,0.282028556
6.84716536,5.279979229,3.289534092,0.500407577
6.86520624,5.153213024,2.276468515,0.733700335
6.88324656,4.487422943,0.822383523,0.776310861
6.90128963,4.027229309,0.889495134,0.882837236
6.91933098,4.13269043,1.364602685,1.267397404
6.93737224,3.948399782,1.236771107,1.586976528
6.95541348,3.61390686,1.254880548,1.840509295
6.97345474,3.236803532,1.363537431,1.953427196
6.99149598,2.718020201,1.404017448,1.938513517
7.00953724,2.122537851,1.141962647,1.794702888
7.02757848,1.566470146,0.826644599,1.609347105
7.04561974,1.049817324,0.415452808,1.331313252
7.0636614,0.534229696,0.175768495,0.954209924
7.08170312,0.061252661,-0.079894774,0.57071501
7.09974484,-0.27856645,-0.362189651,0.316116989
7.11778463,-0.425572813,-0.758467734,0.181893766
7.13582619,-0.44794336,-0.724379301,0.178697974
7.15386937,-0.442617029,-0.223705366,0.170175865
7.17191062,-0.355265439,0.037284229,0.043409493
7.18995187,-0.336090684,0.124635845,-0.197340086
7.20799312,-0.500141263,0.207726404,-0.449807584
7.22603437,-0.861265659,0.336623311,-0.666056097
7.24407562,-0.977379382,0.103330575,-0.613858163
7.26211687,-0.415985465,0.084155828,0.039148439
7.28015812,-0.228499055,0.183225349,0.380032808
