"Time (s)","X (m/s^2)","Y (m/s^2)","Z (m/s^2)"
-6.321249530E-4,-4.669839020E0,4.783901825E0,9.308093719E0
9.399875067E-3,-4.797523499E0,5.110073547E0,9.532776489E0
1.943087496E-2,-4.572691040E0,4.746180267E0,9.182504883E0
2.946287498E-2,-4.345313873E0,4.515360260E0,8.867709503E0
3.949387500E-2,-4.117787018E0,4.581822052E0,8.624165955E0
4.952487501E-2,-3.816014557E0,4.524790649E0,8.249495087E0
5.955687503E-2,-3.623365173E0,4.286486206E0,8.031697998E0
6.958787504E-2,-3.451971588E0,4.062102814E0,7.998616791E0
7.961987506E-2,-3.306174774E0,3.972888336E0,8.033194885E0
8.965087496E-2,-3.229983215E0,4.028273163E0,7.929759979E0
9.968287498E-2,-3.125799866E0,4.182153168E0,7.785310364E0
1.097138750E-1,-2.989283752E0,4.301604767E0,7.793692932E0
1.197458750E-1,-2.960094452E0,4.306843872E0,7.855214996E0
1.297768750E-1,-2.899470520E0,4.332889709E0,7.979306946E0
1.398078750E-1,-2.852468262E0,4.470154266E0,7.941735077E0
1.498398751E-1,-2.999312897E0,4.729115753E0,8.038733368E0
1.598708750E-1,-3.161575470E0,4.985083466E0,8.378227386E0
1.699028750E-1,-3.088377686E0,4.966821442E0,8.687783661E0
1.799338750E-1,-2.702629852E0,4.648732910E0,8.945996704E0
1.899658750E-1,-2.121837616E0,4.286486206E0,9.212442627E0
1.999968750E-1,-1.541494446E0,3.893703003E0,9.402996368E0
2.100288750E-1,-9.048683167E-1,3.460803223E0,9.589807892E0
2.200598750E-1,-2.052232361E-1,3.032843170E0,9.817933502E0
2.300908751E-1,5.309458923E-1,2.663561096E0,9.927355957E0
2.401228750E-1,1.032253418E0,2.290686493E0,9.888885956E0
2.501538750E-1,1.335522766E0,1.938468933E0,9.855505371E0
2.601858750E-1,1.337019653E0,1.733694763E0,1.004770569E1
2.702168750E-1,1.183439026E0,1.714384918E0,1.035022659E1
2.802488750E-1,1.244212646E0,1.633253632E0,1.073372910E1
2.902798750E-1,1.251996460E0,1.400787048E0,1.088311844E1
3.003118751E-1,1.213376770E0,1.087787933E0,1.104882385E1
3.103428750E-1,1.322948914E0,7.044351196E-1,1.106678650E1
3.203738750E-1,1.306632843E0,7.979905701E-1,9.928254089E0
3.304058750E-1,1.932780762E0,4.911286926E-1,1.044123734E1
3.404368750E-1,2.406994629E0,-1.103205872E-1,1.119147720E1
3.504688750E-1,2.498903503E0,-4.897814941E-1,1.140178986E1
3.604998750E-1,2.724933472E0,-5.117857361E-1,1.070932983E1
3.705305833E-1,3.475023651E0,-6.855743408E-1,1.117695740E1
3.805615833E-1,3.609743500E0,-9.217831421E-1,1.104553070E1
3.905935833E-1,3.752546539E0,-1.030457153E0,1.071591614E1
4.006245834E-1,3.675456848E0,-1.129850464E0,1.029094986E1
4.106555834E-1,3.439098358E0,-1.190474396E0,9.781708832E0
4.206875834E-1,3.282074890E0,-1.283880157E0,9.421408081E0
4.307185833E-1,3.156785431E0,-1.357077942E0,9.293723602E0
4.407505833E-1,3.071612549E0,-1.387015686E0,9.454938354E0
4.507815833E-1,3.023412781E0,-1.385219421E0,9.777816925E0
4.608135833E-1,2.881507874E0,-1.344953156E0,1.008198441E1
4.708445834E-1,2.840792542E0,-1.314117279E0,1.047132477E1
4.808755834E-1,2.878514099E0,-1.337917786E0,1.065678909E1
4.909075834E-1,2.929258575E0,-1.354682922E0,1.066696793E1
5.009385834E-1,2.996768188E0,-1.343156891E0,1.054152878E1
5.109705833E-1,3.038381653E0,-1.310524750E0,1.024933640E1
5.210015833E-1,2.947819977E0,-1.225800934E0,9.775272217E0
5.310335833E-1,2.719544678E0,-1.009500732E0,9.234596558E0
5.410645833E-1,2.642904053E0,-9.089099121E-1,8.843609619E0
5.510965834E-1,2.669099579E0,-9.761201477E-1,8.685987396E0
5.611275834E-1,2.603535919E0,-1.107846222E0,8.625064087E0
5.711585834E-1,2.497705994E0,-1.200054474E0,8.572523346E0
5.811905833E-1,2.357896729E0,-1.228495331E0,8.552914124E0
5.912215833E-1,2.278561707E0,-1.203647003E0,8.569230194E0
6.012535833E-1,2.268981628E0,-1.180594940E0,8.535101166E0
6.112845833E-1,2.248773651E0,-1.207538910E0,8.478518829E0
6.213165834E-1,2.171384583E0,-1.201850739E0,8.423882446E0
6.313475834E-1,2.092798004E0,-1.129700775E0,8.466543732E0
6.413795834E-1,2.019151154E0,-9.758207703E-1,8.649014282E0
6.514105833E-1,1.942211151E0,-8.027806091E-1,8.697513428E0
6.614415833E-1,1.820963287E0,-7.014413452E-1,8.684789886E0
6.714735833E-1,1.807042236E0,-7.783813477E-1,8.693022766E0
6.815045833E-1,1.731898499E0,-9.002279663E-1,8.680748291E0
6.915365834E-1,1.627266083E0,-9.846524048E-1,8.712332611E0
7.015675834E-1,1.570983124E0,-1.022224274E0,8.859177246E0
7.115995834E-1,1.509161682E0,-1.008602600E0,8.941655731E0
7.216305833E-1,1.434317322E0,-9.782157898E-1,8.841513977E0
7.316625833E-1,1.328936462E0,-9.385482788E-1,8.625064087E0
7.416935833E-1,1.207838287E0,-8.728349304E-1,8.380023651E0
7.517245833E-1,1.066232758E0,-7.795788574E-1,8.290958862E0
7.617565833E-1,9.455836487E-1,-7.367678833E-1,8.449778595E0
7.717875834E-1,9.611512756E-1,-8.578660583E-1,8.692723389E0
7.818195834E-1,9.756710815E-1,-9.994715881E-1,8.896000671E0
7.918505834E-1,9.369017029E-1,-1.078207855E0,9.255852356E0
8.018825833E-1,9.520202637E-1,-1.141376495E0,9.799970856E0
8.119135833E-1,9.644444275E-1,-1.222058716E0,1.008602600E1
8.219455833E-1,9.247769165E-1,-1.241667938E0,9.976154480E0
8.319765833E-1,8.955876160E-1,-1.181343384E0,9.834998016E0
8.420075834E-1,9.416917419E-1,-1.072220306E0,1.002585114E1
8.520395834E-1,1.281784515E0,-7.969427490E-1,1.014934433E1
8.620705834E-1,1.401535492E0,-1.669328613E0,1.109462860E1
8.721025833E-1,1.001267853E0,-2.768941956E0,1.100930603E1
8.821335833E-1,1.008602600E0,-1.574276276E0,8.935219116E0
8.921655833E-1,5.655239868E-1,-1.129850464E0,8.863518219E0
9.021965833E-1,2.758763123E-1,-8.225395203E-1,9.504335632E0
9.122285834E-1,2.887495422E-1,-4.954696655E-2,1.006477020E1
9.222595834E-1,3.483256531E-1,5.629792786E-1,1.048240173E1
9.322905834E-1,5.044509888E-1,4.477189636E-1,1.055769516E1
9.423225833E-1,5.680686951E-1,3.297642517E-1,1.074540482E1
9.523535833E-1,4.349954224E-1,-6.735992432E-3,1.062565384E1
9.623855833E-1,3.433859253E-1,-1.686991882E-1,1.020622604E1
9.724165833E-1,2.781216431E-1,6.586303711E-3,8.977581024E0
9.824485834E-1,-2.245330811E-2,-4.896318054E-1,9.425749054E0
9.924795834E-1,-5.334906006E-1,-6.768923950E-1,1.082997894E1
1.002510583E0,-7.929011536E-1,-2.609074402E-1,1.089524323E1
1.012542583E0,-8.026309204E-1,-3.252735901E-1,1.121393051E1
1.022573583E0,-8.405021667E-1,-7.478448486E-1,1.195863190E1
1.032605583E0,-7.008425903E-1,-1.001716919E0,1.202075272E1
1.042636583E0,-5.842350769E-1,-1.036444702E0,1.159623550E1
1.052668583E0,-4.454736328E-1,-8.997789001E-1,1.129880402E1
1.062699583E0,-2.701881409E-1,-3.918850708E-1,1.104553070E1
1.072731583E0,-7.708969116E-2,1.017883301E-1,1.054542068E1
1.082762583E0,1.523831177E-1,5.016069031E-1,1.001267853E1
1.092793583E0,2.436932373E-1,5.980064392E-1,9.757758636E0
1.102825583E0,7.155120850E-2,4.827461243E-1,9.984237671E0
1.112856583E0,-1.829196167E-1,2.601589966E-1,1.057071808E1
1.122888583E0,-3.778143311E-1,2.933898926E-2,1.117022141E1
1.132919583E0,-6.277944946E-1,-1.984872437E-1,1.153441406E1
1.142951583E0,-8.342152405E-1,-2.667453003E-1,1.155641830E1
1.152982583E0,-8.604107666E-1,-2.019300842E-1,1.145403122E1
1.163014583E0,-6.988966370E-1,-2.683918762E-1,1.092323502E1
1.173045583E0,-4.222718811E-1,-3.221301270E-1,1.000788849E1
1.183076583E0,-5.777984619E-2,-1.839674377E-1,9.325158234E0
1.193108583E0,2.041754150E-1,2.163002014E-1,9.297465820E0
1.203139583E0,-2.619552612E-2,8.228388977E-1,9.572144623E0
1.213171583E0,-2.972817993E-1,9.006770325E-1,9.333391113E0
1.223202583E0,-4.590953064E-1,6.135740662E-1,9.913285217E0
1.233234583E0,-8.683442688E-1,-2.712359619E-1,1.094958023E1
1.243265583E0,-6.406677246E-2,-6.421646118E-1,1.090931396E1
1.253296583E0,8.207432556E-1,-9.294172668E-1,1.038959473E1
1.263328583E0,1.145268402E0,-9.702822876E-1,9.579329681E0
1.273359583E0,9.776170349E-1,-8.737330627E-1,8.678952026E0
1.283391583E0,5.191204834E-1,-6.227050781E-1,8.338709564E0
1.293422583E0,-1.258882141E-1,-5.697152710E-1,8.929530945E0
1.303454583E0,-5.170248413E-1,-4.300556946E-1,9.293723602E0
1.313485583E0,-6.631210327E-1,-2.698887634E-1,9.745184784E0
1.323516583E0,-8.240364075E-1,-6.032455444E-1,1.022583527E1
1.333548583E0,-1.453627167E0,-7.761360168E-1,1.086635330E1
1.343579583E0,-1.689087524E0,-1.266216888E0,1.159354111E1
1.353611583E0,-5.794450378E-1,-1.691632233E0,1.153621033E1
1.363642583E0,-2.354603577E-1,-1.267713776E0,1.047611481E1
1.373675875E0,-7.954458618E-1,-7.387138367E-1,8.736731873E0
1.383706875E0,-7.391629028E-1,-1.296903076E0,7.829767914E0
1.393737875E0,-3.936813354E-2,-1.936223602E0,8.626111908E0
1.403769875E0,4.430786133E-2,-1.978286133E0,8.930878143E0
1.413800875E0,-3.727249146E-2,-1.765877838E0,8.306676178E0
1.423832875E0,1.495390320E-1,-1.610650635E0,7.873477020E0
1.433863875E0,4.433779907E-1,-1.286724243E0,8.244405670E0
1.443895875E0,2.502795410E-1,-4.918771362E-1,8.916208649E0
1.453926875E0,-1.588197327E-1,-2.218386841E-1,8.831933899E0
1.463958875E0,-1.743873596E-1,-7.298822021E-1,8.518635406E0
1.473989875E0,-4.715194702E-2,-1.513951721E0,8.369844818E0
1.484020875E0,-3.233276367E-2,-1.936672668E0,8.511001282E0
1.494052875E0,6.586303711E-3,-1.955234070E0,8.737180939E0
1.504083875E0,1.387614441E-1,-2.158511353E0,8.989406433E0
1.514115875E0,2.213896179E-1,-2.538271637E0,9.298513641E0
1.524146875E0,3.808081055E-1,-2.583477631E0,9.375154266E0
1.534177875E0,-1.413061523E-1,-3.524570618E0,8.970695343E0
1.544209875E0,-9.135502625E-1,-2.187401276E0,9.324709167E0
1.554240875E0,-1.113983459E0,-1.284329224E0,1.021760239E1
1.564272875E0,-1.147813110E0,-1.409918060E0,9.643546143E0
1.574303875E0,-1.408421173E0,-1.238075409E0,8.985364838E0
1.584335875E0,-1.505718842E0,-1.478924561E0,9.325607300E0
1.594366875E0,-1.429227905E0,-2.016307068E0,9.777517548E0
1.604397875E0,-1.382525024E0,-1.848955078E0,9.621990967E0
1.614429875E0,-1.103954315E0,-1.377734985E0,9.755064240E0
1.624460875E0,-1.886077881E-2,-1.019080811E0,1.039827667E1
1.634492875E0,5.607339478E-1,-6.605763245E-1,1.072355026E1
1.644523875E0,1.493893433E-1,-4.968168640E-1,1.077414505E1
1.654555875E0,-2.896476746E-1,-3.028202820E-1,1.053464310E1
1.664586875E0,-1.981878662E-1,8.354127502E-1,1.040920395E1
1.674617875E0,4.655319214E-1,3.744014282E0,8.657097473E0
1.684649875E0,3.063229980E0,7.237150269E0,5.634133759E0
1.694680875E0,4.857997742E0,4.890929260E0,8.138276367E0
1.704712875E0,3.114273834E0,-1.998344421E-1,9.191785583E0
1.714743875E0,2.269281006E0,-1.071172485E0,8.722212067E0
1.724775875E0,1.951042786E0,-1.573527832E0,9.378597107E0
1.734806875E0,1.778751068E0,-4.511618042E-1,9.593550110E0
1.744837875E0,1.390009460E0,2.118095398E-1,9.724378052E0
1.754869875E0,1.118474121E0,8.030799866E-1,9.620494080E0
1.764900875E0,1.102906494E0,1.341360626E0,9.354646912E0
1.774932875E0,1.081950073E0,1.142723694E0,8.998537445E0
1.784963875E0,9.035211182E-1,8.762777710E-1,8.749006348E0
1.794995875E0,7.167095947E-1,6.514453125E-1,8.674461365E0
1.805026875E0,9.842033386E-1,4.305047607E-1,9.992919617E0
1.815057875E0,1.156045990E0,5.034031677E-1,9.524094543E0
1.825089875E0,1.342857513E0,-2.341131592E-1,9.566905518E0
1.835120875E0,1.381776581E0,6.661148071E-2,9.437275085E0
1.845152875E0,1.119821320E0,8.800199890E-1,9.262438660E0
1.855183875E0,3.362008667E-1,7.918533325E-1,1.038675064E1
1.865215875E0,-1.549278259E-1,3.848497009E-1,1.181942139E1
1.875246875E0,-7.604187012E-2,6.438111877E-1,1.036250107E1
1.885277875E0,1.775308228E-1,8.276289368E-1,9.801617432E0
1.895309875E0,1.327888641E0,7.574249268E-2,1.021011795E1
1.905340875E0,2.743345184E0,-2.363584900E-1,1.032882111E1
1.915372875E0,2.665357361E0,1.986369324E-1,1.017958145E1
1.925403875E0,1.636846161E0,1.201102295E0,1.031744476E1
1.935434875E0,4.508624268E-1,-3.168910217E-1,9.975106659E0
1.945466875E0,-3.740721130E-1,-1.800455933E0,7.916138306E0
1.955497875E0,4.311035156E-2,-2.862048340E-1,7.729476471E0
1.965529875E0,7.011419678E-1,1.552272034E-1,8.942404175E0
1.975560875E0,1.115480347E0,-8.966354370E-2,9.755662994E0
1.985592875E0,7.069798279E-1,-6.390211487E-1,9.620045013E0
1.995623875E0,2.818638611E-1,-7.376660156E-1,1.028541138E1
2.005655875E0,-7.858657837E-2,-8.219407654E-1,1.058239380E1
2.015686875E0,-3.363505554E-1,-1.249900818E0,9.295220490E0
2.025717875E0,-3.261717224E-1,-1.453776855E0,7.494315491E0
2.035749875E0,-3.637435913E-1,-1.629960480E0,6.510261841E0
2.045780875E0,1.213975525E-1,-1.760938110E0,6.584208069E0
2.055812875E0,6.768923950E-1,-1.528022461E0,7.807613983E0
2.065843875E0,6.744973755E-1,-8.033793640E-1,9.604178009E0
2.075874875E0,1.758842468E-1,-1.495390320E-1,1.051323761E1
2.085906875E0,-6.360273743E-1,1.239422607E-1,1.052700897E1
2.095937875E0,-1.136287079E0,1.338217163E-1,1.051623138E1
2.105969875E0,-1.273401947E0,-2.859054565E-2,1.023272095E1
2.116000875E0,-1.711091766E0,7.750881958E-1,1.044168640E1
2.126032875E0,-1.915267181E0,2.041604462E0,1.022703278E1
2.136063875E0,-1.636696472E0,2.151326294E0,7.961044922E0
2.146094875E0,-1.628164215E0,2.940634918E0,8.184530182E0
2.156126875E0,-1.448238373E0,2.938389587E0,8.152796173E0
2.166157875E0,-2.068548431E0,2.695744171E0,8.343798981E0
2.176189875E0,-3.311264191E0,2.011816406E0,9.075327759E0
2.186220875E0,-2.453398132E0,1.378932495E0,8.982969818E0
2.196252875E0,-1.367855530E0,9.865983582E-1,9.397457886E0
2.206283875E0,-1.146615601E0,1.541793823E-2,9.608818359E0
2.216314875E0,-1.666334839E0,-6.328839111E-1,9.652527466E0
2.226346875E0,-2.731519775E0,-1.181343384E0,9.578431549E0
2.236377875E0,-3.457210693E0,-1.876647491E0,9.808652802E0
2.246409875E0,-3.464695129E0,-1.936223602E0,9.995314636E0
2.256440875E0,-3.062481537E0,-8.161029053E-1,9.865534515E0
2.266472875E0,-2.580932922E0,7.050338745E-2,9.950258331E0
2.276503875E0,-2.132016449E0,5.598358154E-1,9.871821442E0
2.286534875E0,-2.487078094E0,-5.837860107E-2,9.978250122E0
2.296566875E0,-2.582130432E0,-8.714877319E-1,1.020053787E1
2.306597875E0,-2.054178314E0,-9.222322083E-1,9.087602234E0
2.316629875E0,-2.233655090E0,-1.214723969E0,8.751850433E0
2.326660875E0,-2.595153351E0,-1.187330933E0,9.053473206E0
2.336692875E0,-2.947221222E0,-1.880389709E0,8.917406158E0
2.346723875E0,-4.544549561E0,-2.975662079E0,7.696395264E0
2.356754875E0,-5.076692963E0,-2.763253784E0,1.059900925E1
2.366786875E0,-4.739593964E0,-1.461560669E0,9.352850647E0
2.376816500E0,-5.466482391E0,-1.538650360E0,9.798473969E0
2.386848500E0,-6.117927704E0,-1.214723969E0,9.372609558E0
2.396879500E0,-5.774691467E0,-2.221679993E0,9.232201538E0
2.406910500E0,-5.344935150E0,-2.787353668E0,8.647517395E0
2.416942500E0,-5.471571808E0,-2.282902679E0,8.799900513E0
2.426973500E0,-6.059399414E0,-2.188299408E0,9.367071075E0
2.437005500E0,-6.489455109E0,-1.310674438E0,9.088200989E0
2.447036500E0,-6.646478577E0,-9.614506531E-1,8.902886353E0
2.457068500E0,-6.655459900E0,-1.260528717E0,8.780440979E0
2.467099500E0,-6.534661102E0,-1.852846985E0,8.201594696E0
2.477130500E0,-6.606062622E0,-2.628384247E0,7.655530243E0
2.487162500E0,-6.660549316E0,-2.884052582E0,7.131170654E0
2.497193500E0,-6.820566559E0,-3.092269592E0,7.095245361E0
2.507225500E0,-7.318131866E0,-3.115770721E0,7.035519562E0
2.517256500E0,-7.666158142E0,-2.472408600E0,6.816974030E0
2.527288500E0,-8.048463135E0,-2.145937500E0,6.448440399E0
2.537319500E0,-8.717871094E0,-2.374362488E0,5.689967651E0
2.547350500E0,-9.270072784E0,-2.316283264E0,4.718936920E0
2.557382500E0,-9.798923035E0,-2.525398407E0,3.770359497E0
2.567413500E0,-1.050620224E1,-2.963686981E0,2.610571289E0
2.577445500E0,-1.105136856E1,-3.142714691E0,1.527872772E0
2.587476500E0,-1.130030090E1,-3.131038971E0,1.018631744E0
2.597508500E0,-1.144534927E1,-2.890339508E0,1.133293304E0
2.607539500E0,-1.156031021E1,-1.995200958E0,1.799857178E0
2.617570500E0,-1.097861984E1,-8.225395203E-1,2.593207397E0
2.627602500E0,-1.012719040E1,-2.227368164E-1,3.077151031E0
2.637633500E0,-9.267228699E0,4.565505981E-2,2.834954681E0
2.647665500E0,-8.847052460E0,-1.058448944E0,8.569679260E-1
2.657696500E0,-8.168064423E0,1.568737793E-1,1.905836792E0
2.667727500E0,-6.341712341E0,2.168091431E0,1.331032104E0
2.677759500E0,-5.779930573E0,9.319619751E-1,5.739065552E-1
2.687790500E0,-5.012476501E0,8.876541138E-2,-5.294490051E-1
2.697822500E0,-4.185296631E0,-6.559359741E-1,-1.549727325E0
2.707853500E0,-3.940854950E0,-1.523082733E0,-2.578537903E0
2.717885500E0,-4.358336792E0,-2.898871765E0,-3.434607697E0
2.727916500E0,-5.056335297E0,-3.715423737E0,-2.979703674E0
2.737947500E0,-6.334527283E0,-3.266806641E0,-2.739303589E0
2.747979500E0,-8.611292725E0,-3.599115601E0,-3.687282257E0
2.758010500E0,-1.101499420E1,-4.087849274E0,-4.766238556E0
2.768042500E0,-1.225202179E1,-3.763773193E0,-5.314847717E0
2.778073500E0,-1.338336914E1,-4.107009430E0,-6.252198486E0
2.788104500E0,-1.445424225E1,-4.810845795E0,-6.040388947E0
2.798136500E0,-1.432895279E1,-4.297114105E0,-4.887037354E0
2.808167500E0,-1.351509521E1,-4.353097687E0,-3.880231018E0
2.818199500E0,-1.276066406E1,-5.773493958E0,-3.835174713E0
2.828230500E0,-1.290646088E1,-7.140301666E0,-4.433330841E0
2.838262500E0,-1.350850891E1,-7.637118530E0,-4.848417664E0
2.848293500E0,-1.420441177E1,-7.160509644E0,-4.643793182E0
2.858324500E0,-1.441981384E1,-6.335126038E0,-4.006119232E0
2.868356500E0,-1.424497742E1,-6.791976013E0,-3.863914948E0
2.878387500E0,-1.385324203E1,-8.408165131E0,-4.211043091E0
2.888419500E0,-1.275183243E1,-9.216484222E0,-4.530478821E0
2.898450500E0,-1.157078842E1,-9.261241150E0,-4.124073944E0
2.908481500E0,-1.052985306E1,-8.563392334E0,-3.687881012E0
2.918513500E0,-9.944270782E0,-7.982899475E0,-3.576512604E0
2.928544500E0,-9.562863922E0,-8.242908783E0,-3.819457397E0
2.938576500E0,-9.238488464E0,-8.328081665E0,-4.022285614E0
2.948607500E0,-9.340576172E0,-7.570806427E0,-3.839665375E0
2.958639500E0,-9.908345490E0,-6.527326355E0,-3.053350525E0
2.968670500E0,-1.003902374E1,-5.947731628E0,-2.705024872E0
2.978701500E0,-9.832602997E0,-6.169121246E0,-2.411185913E0
2.988733500E0,-9.075627136E0,-5.836213531E0,-1.883383484E0
2.998764500E0,-7.779023438E0,-5.237009583E0,-1.482068024E0
3.008796500E0,-6.821464691E0,-5.280569000E0,-1.316212921E0
3.018827500E0,-6.221961365E0,-5.265300751E0,-1.125509491E0
3.028858500E0,-6.052214355E0,-6.005810852E0,-2.010618896E0
3.038890500E0,-5.561534729E0,-6.097719727E0,-2.515219574E0
3.048921500E0,-5.410349121E0,-7.048991547E0,-3.938759308E0
3.058953500E0,-5.046156464E0,-7.084916840E0,-4.659809875E0
3.068984500E0,-4.570296021E0,-7.130571899E0,-5.315895538E0
3.079015500E0,-4.069437561E0,-7.062463531E0,-5.623505859E0
3.089047500E0,-3.217708740E0,-6.345454559E0,-5.465434570E0
3.099078500E0,-2.681224365E0,-5.391787720E0,-4.686155090E0
3.109110500E0,-1.864522705E0,-4.375251617E0,-3.835324402E0
3.119141500E0,-9.324110413E-1,-3.919599152E0,-2.940485229E0
3.129172500E0,-6.161187744E-1,-3.800147552E0,-2.525847473E0
3.139204500E0,-2.264041901E0,-3.641327820E0,-3.807781677E0
3.149235500E0,-3.367247772E0,-4.835843811E0,-4.572691040E0
3.159267500E0,-3.510499878E0,-4.396058350E0,-4.367916870E0
3.169298500E0,-3.354524231E0,-3.896696777E0,-4.064946899E0
3.179330500E0,-3.566034393E0,-4.893473969E0,-3.719465332E0
3.189361500E0,-3.771706696E0,-4.541555786E0,-2.987337799E0
3.199392500E0,-3.028951263E0,-2.850671997E0,-2.497556305E0
3.209424500E0,-2.772684174E0,-3.228785706E0,-2.113155670E0
3.219455500E0,-3.413501587E0,-7.943381653E0,-2.055076447E0
3.229487500E0,-4.141288147E0,-9.577533417E0,-4.404740295E0
3.239518500E0,-4.792134705E0,-9.223369904E0,-5.328619080E0
3.249549500E0,-4.860392761E0,-9.747579803E0,-5.587131500E0
3.259581500E0,-4.208947449E0,-1.037627243E1,-5.831872559E0
3.269612500E0,-3.342399445E0,-1.072998688E1,-5.254672852E0
3.279644500E0,-2.799927521E0,-9.912536774E0,-4.026177521E0
3.289675500E0,-2.135459290E0,-8.405171356E0,-3.094065857E0
3.299706500E0,-1.984872437E0,-7.361990662E0,-2.699785767E0
3.309738500E0,-2.598296814E0,-7.592062225E0,-3.290457458E0
3.319769500E0,-3.244503021E0,-8.446335754E0,-4.082310791E0
3.329801500E0,-3.625460815E0,-7.921227722E0,-3.682192841E0
3.339832500E0,-4.248914337E0,-8.103099518E0,-2.821782074E0
3.349863500E0,-4.341122589E0,-8.625662842E0,-2.812201996E0
3.359895500E0,-4.354594574E0,-9.184301147E0,-3.034938812E0
3.369926500E0,-4.257745972E0,-9.220525818E0,-3.020269318E0
3.379959583E0,-4.145928497E0,-8.597970428E0,-2.323767700E0
3.389990583E0,-3.775149536E0,-7.990383911E0,-2.003284149E0
3.400021583E0,-3.529809723E0,-8.418942719E0,-2.377505951E0
