"Time (s)","Acceleration x (m/s^2)","Acceleration y (m/s^2)","Acceleration z (m/s^2)"
5.533681000E-3,2.923050165E0,6.049950123E0,3.759000063E0
7.529982000E-3,2.902950048E0,6.120000362E0,3.634950161E0
9.529999000E-3,2.935050249E0,6.121950150E0,3.661050081E0
1.152990600E-2,3.022950172E0,6.136950493E0,3.726000071E0
1.352981300E-2,3.148050070E0,6.124950409E0,3.822000265E0
1.552972000E-2,3.223950148E0,6.115050316E0,3.915000200E0
1.752962700E-2,3.315000057E0,6.082050323E0,4.023000240E0
1.952953400E-2,3.399000168E0,6.052950382E0,4.164000034E0
2.152944100E-2,3.484950066E0,5.998050213E0,4.296000004E0
2.352934800E-2,3.526050091E0,5.971050262E0,4.441950321E0
2.552925500E-2,3.564000130E0,5.911950111E0,4.624050140E0
2.752916200E-2,3.588000059E0,5.872950077E0,4.839000225E0
2.952906900E-2,3.610050201E0,5.856000423E0,5.032950401E0
3.152897600E-2,3.655050278E0,5.839950085E0,5.277000427E0
3.352888300E-2,3.712950230E0,5.823000431E0,5.530950069E0
3.552879000E-2,3.832050085E0,5.866050243E0,5.734950066E0
3.752869700E-2,3.961950302E0,5.887950420E0,5.878050327E0
3.952860400E-2,4.021950245E0,5.824950218E0,6.088950157E0
4.152851100E-2,4.048050404E0,5.806050301E0,6.333000183E0
4.352841800E-2,4.017000198E0,5.794050217E0,6.534000397E0
4.552832500E-2,3.937950134E0,5.791950226E0,6.727950096E0
4.752823200E-2,3.825000286E0,5.815950394E0,6.895950317E0
4.952813900E-2,3.643050194E0,5.835000515E0,7.099050522E0
5.152804600E-2,3.370050192E0,5.812950134E0,7.260000229E0
5.352795300E-2,3.282000065E0,5.785050392E0,7.435050488E0
5.552786000E-2,3.181050062E0,5.833050251E0,7.675950527E0
5.752776700E-2,3.085050106E0,5.863950253E0,7.923000336E0
5.952767400E-2,2.989950180E0,5.884950161E0,8.143050194E0
6.152758100E-2,2.905950069E0,5.907000065E0,8.317950249E0
6.352748800E-2,2.820000172E0,5.880000114E0,8.473950386E0
6.552739500E-2,2.728950024E0,5.875950336E0,8.674950600E0
6.752730200E-2,2.665950060E0,5.859000206E0,8.830050468E0
6.952720900E-2,2.571000099E0,5.823000431E0,8.968950272E0
7.152711600E-2,2.524950027E0,5.785050392E0,9.064949989E0
7.352702300E-2,2.452950001E0,5.742000103E0,9.124950409E0
7.552693000E-2,2.365050077E0,5.706000328E0,9.180000305E0
7.752683700E-2,2.287950039E0,5.655000210E0,9.168000221E0
7.952674400E-2,2.191950083E0,5.614950180E0,9.166050911E0
8.152665100E-2,2.149049997E0,5.575950146E0,9.145950317E0
8.352655800E-2,2.082000017E0,5.536050320E0,9.098999977E0
8.552646500E-2,2.005950212E0,5.506950378E0,9.040950775E0
8.752637200E-2,1.921950102E0,5.482950211E0,8.941050529E0
8.952627900E-2,1.821000099E0,5.482950211E0,8.896950722E0
9.149889600E-2,1.761000037E0,5.470950127E0,8.797050476E0
9.316143900E-2,1.735050082E0,5.428050041E0,8.718000412E0
9.515151100E-2,1.941000104E0,5.256000042E0,8.646000862E0
9.714166500E-2,1.879050136E0,5.287050247E0,8.562000275E0
9.913158800E-2,1.747050047E0,5.418000221E0,8.410950661E0
1.011216630E-1,1.639050126E0,5.530950069E0,8.289000511E0
1.031116220E-1,2.013000011E0,6.024000168E0,8.128950119E0
1.051016970E-1,2.202000141E0,6.189000130E0,8.052000046E0
1.070918510E-1,2.218950033E0,6.141000271E0,8.038050652E0
1.090817760E-1,2.275950193E0,6.105000496E0,7.971000195E0
1.110718510E-1,2.293050051E0,6.067050457E0,7.867950439E0
1.130617760E-1,2.287950039E0,6.060000420E0,7.734000206E0
1.150518510E-1,2.250000000E0,6.064950466E0,7.600050449E0
1.170417760E-1,2.178000212E0,6.084000111E0,7.477950573E0
1.190319280E-1,2.097000122E0,6.096000195E0,7.353000164E0
1.210220070E-1,2.041949987E0,6.109950066E0,7.248000145E0
1.230119300E-1,2.013000011E0,6.112950325E0,7.144950390E0
1.250020380E-1,1.975050092E0,6.100950241E0,7.066050529E0
1.269919630E-1,1.969950080E0,6.088950157E0,6.979950428E0
1.289820380E-1,1.906950116E0,6.049950123E0,6.910050392E0
1.309719630E-1,1.867050052E0,6.036000252E0,6.831000328E0
1.329621150E-1,1.833000064E0,5.991000175E0,6.739950180E0
1.349521940E-1,1.777950048E0,5.967000484E0,6.658950329E0
1.369421270E-1,1.749000072E0,5.926050186E0,6.580050468E0
1.389322020E-1,1.735050082E0,5.896950245E0,6.508050442E0
1.409221270E-1,1.693950057E0,5.859000206E0,6.457950115E0
1.429122790E-1,1.690050125E0,5.812950134E0,6.415050507E0
1.449023580E-1,1.692000031E0,5.751000404E0,6.381000519E0
1.468922810E-1,1.737000108E0,5.707950115E0,6.403050423E0
1.488823800E-1,2.062950134E0,5.730000496E0,6.498000145E0
1.508723050E-1,2.262000084E0,5.755950451E0,6.580050468E0
1.528624570E-1,2.167950153E0,5.785050392E0,6.562950134E0
1.548523050E-1,2.092050076E0,5.797050476E0,6.556050301E0
1.568424570E-1,2.029950142E0,5.811000347E0,6.573000431E0
1.588325340E-1,1.960050106E0,5.844000340E0,6.594000340E0
1.608224580E-1,1.921950102E0,5.854050159E0,6.622950077E0
1.628125330E-1,1.881000042E0,5.875950336E0,6.655950546E0
1.648024580E-1,1.833000064E0,5.895000458E0,6.691950321E0
1.667926100E-1,1.795050144E0,5.907000065E0,6.730950356E0
1.687826890E-1,1.752000093E0,5.908950329E0,6.783000469E0
1.707726120E-1,1.737000108E0,5.904000282E0,6.831000328E0
1.727626920E-1,1.692000031E0,5.884950161E0,6.877050400E0
1.747526170E-1,1.668000102E0,5.856000423E0,6.910050392E0
1.767426920E-1,1.630050063E0,5.851950169E0,6.940950394E0
1.787328450E-1,1.606050134E0,5.815950394E0,6.949050426E0
1.807227700E-1,1.576950073E0,5.818050385E0,6.984000206E0
1.827128600E-1,1.534050107E0,5.799000263E0,7.036950111E0
1.847027850E-1,1.498050094E0,5.799000263E0,7.060950279E0
1.866928600E-1,1.443000078E0,5.794050217E0,7.104000568E0
1.886830140E-1,1.407000065E0,5.785050392E0,7.144950390E0
1.906729390E-1,1.335000038E0,5.770050049E0,7.192950249E0
1.926630140E-1,1.287000060E0,5.775000095E0,7.249950409E0
1.946529290E-1,1.243950009E0,5.775000095E0,7.288950443E0
1.966430040E-1,1.195950031E0,5.785050392E0,7.309950352E0
1.986331580E-1,1.162950039E0,5.782050133E0,7.348050117E0
2.006230830E-1,1.120050073E0,5.799000263E0,7.399050236E0
2.026131580E-1,1.078950047E0,5.794050217E0,7.420050144E0
2.046030830E-1,1.033950090E0,5.806050301E0,7.429950237E0
2.065931770E-1,9.949500561E-1,5.803950310E0,7.444050312E0
2.085831020E-1,9.570000172E-1,5.803950310E0,7.498950481E0
2.105731770E-1,9.000000358E-1,5.830050468E0,7.492050171E0
2.125631020E-1,8.590500355E-1,5.812950134E0,7.497000217E0
2.145532540E-1,8.320500255E-1,5.776950359E0,7.504050255E0
2.165433380E-1,7.890000343E-1,5.767950058E0,7.504050255E0
2.185332610E-1,7.870500088E-1,5.764950275E0,7.521000385E0
2.205233360E-1,7.489500642E-1,5.727000237E0,7.521000385E0
2.225132610E-1,7.249500155E-1,5.718000412E0,7.530000210E0
2.245034130E-1,7.180500627E-1,5.703000069E0,7.528050423E0
2.264935160E-1,6.940500140E-1,5.682000160E0,7.554000378E0
2.284834390E-1,6.510000229E-1,5.643000126E0,7.570950508E0
2.304735140E-1,6.430500150E-1,5.635950089E0,7.554000378E0
2.324634390E-1,6.100500226E-1,5.610000134E0,7.549950123E0
2.344535910E-1,6.049500108E-1,5.607000351E0,7.542000294E0
2.364434390E-1,5.670000315E-1,5.578950405E0,7.564050198E0
2.384335720E-1,5.569500327E-1,5.557050228E0,7.558950424E0
2.404236490E-1,5.550000072E-1,5.533050060E0,7.552050591E0
2.424135740E-1,5.329500437E-1,5.505000114E0,7.522950172E0
2.444036490E-1,5.190000534E-1,5.490000248E0,7.498950481E0
2.463935740E-1,5.119500160E-1,5.488050461E0,7.477950573E0
2.483837260E-1,5.070000291E-1,5.493000031E0,7.462950230E0
2.503738000E-1,5.140500069E-1,5.502000332E0,7.420050144E0
2.523637230E-1,5.279999971E-1,5.493000031E0,7.413000584E0
2.543537980E-1,5.329500437E-1,5.521050453E0,7.417950153E0
2.563437230E-1,5.479500294E-1,5.527950287E0,7.423050404E0
2.583338750E-1,5.479500294E-1,5.524050236E0,7.399050236E0
2.603239530E-1,5.809500217E-1,5.521050453E0,7.405950546E0
2.623138720E-1,6.150000095E-1,5.518950462E0,7.356000423E0
2.643039460E-1,6.529500484E-1,5.521050453E0,7.332000256E0
2.662938720E-1,6.960000396E-1,5.527950287E0,7.309950352E0
2.682839470E-1,7.530000210E-1,5.524050236E0,7.291050434E0
2.702741000E-1,7.990500331E-1,5.502000332E0,7.243050575E0
2.722640250E-1,8.490000367E-1,5.526000500E0,7.231050491E0
2.742541090E-1,8.830500245E-1,5.505000114E0,7.200000286E0
2.762440340E-1,9.259500504E-1,5.502000332E0,7.162050247E0
2.782341090E-1,9.690000415E-1,5.482950211E0,7.152000427E0
2.802242630E-1,9.829500318E-1,5.485050201E0,7.120950222E0
2.822141880E-1,1.002000093E0,5.470950127E0,7.116000175E0
2.842042630E-1,1.021950006E0,5.466000080E0,7.080000401E0
2.861941690E-1,1.050000072E0,5.452050209E0,7.095000267E0
2.881842440E-1,1.048050046E0,5.437050343E0,7.080000401E0
2.901743980E-1,1.258950114E0,5.253000259E0,7.095000267E0
2.921643230E-1,1.363950014E0,5.188050270E0,7.126050472E0
2.941543980E-1,1.345050097E0,5.185950279E0,7.102050304E0
2.961443230E-1,1.278000116E0,5.221950054E0,7.090050220E0
2.981343980E-1,1.216050029E0,5.281950474E0,7.042050362E0
3.001243230E-1,1.182000041E0,5.317950249E0,6.999000549E0
3.021143980E-1,1.132050037E0,5.380050182E0,6.958050251E0
3.041043230E-1,1.090950012E0,5.445000172E0,6.910050392E0
3.060944750E-1,1.024049997E0,5.533050060E0,6.898050308E0
3.080845540E-1,9.829500318E-1,5.593050480E0,6.871950150E0
3.100744820E-1,9.210000634E-1,5.650950432E0,6.862050533E0
3.120645570E-1,8.779500127E-1,5.703000069E0,6.843000412E0
3.140544820E-1,8.010000587E-1,5.763000488E0,6.834000111E0
3.160446340E-1,7.729500532E-1,5.794050217E0,6.834000111E0
3.180347130E-1,7.320000529E-1,5.851950169E0,6.817050457E0
3.200246360E-1,7.060500383E-1,5.878050327E0,6.811950207E0
3.220147210E-1,6.910500526E-1,5.902050495E0,6.811950207E0
3.240046460E-1,6.840000153E-1,5.932950497E0,6.799950123E0
3.259947210E-1,6.670500040E-1,5.956950188E0,6.793050289E0
3.279848750E-1,6.600000262E-1,5.968950272E0,6.762000084E0
3.299748000E-1,6.340500116E-1,5.998050213E0,6.750000477E0
3.319648750E-1,6.190500259E-1,6.010050297E0,6.714000225E0
3.339547800E-1,6.150000095E-1,6.034050465E0,6.739950180E0
3.359448550E-1,6.150000095E-1,6.024000168E0,6.697050095E0
3.379350090E-1,6.049500108E-1,6.016950130E0,6.702000141E0
3.399249340E-1,6.169500351E-1,6.007050514E0,6.703950405E0
3.419150090E-1,5.790000558E-1,5.991000175E0,6.613050461E0
3.439049340E-1,5.809500217E-1,5.991000175E0,6.606000423E0
3.458950090E-1,5.550000072E-1,5.967000484E0,6.561000347E0
3.478851620E-1,5.710500479E-1,5.926050186E0,6.520050526E0
3.498750110E-1,5.569500327E-1,5.892000198E0,6.472050190E0
3.518651620E-1,5.449500084E-1,5.818050385E0,6.357000351E0
3.538550880E-1,5.119500160E-1,5.641050339E0,5.731950283E0
3.558451620E-1,4.710000157E-1,5.833050251E0,5.826000214E0
3.578350700E-1,4.369500279E-1,5.827950478E0,5.758950233E0
3.598251440E-1,3.679500222E-1,5.812950134E0,5.718000412E0
3.618152980E-1,2.910000086E-1,5.758050442E0,5.649000168E0
3.638052230E-1,2.170500159E-1,5.659950256E0,5.506950378E0
3.657952980E-1,1.909500062E-1,5.275050163E0,5.146050453E0
3.677852230E-1,2.595000155E-2,4.774050236E0,4.532999992E0
3.697753030E-1,-1.530000120E-1,4.603950024E0,4.104000092E0
3.717652280E-1,-2.080500126E-1,4.837050438E0,4.255050182E0
3.737553800E-1,-3.010500073E-1,5.016000271E0,4.473000050E0
3.757452280E-1,-4.159500301E-1,5.145000458E0,4.702950001E0
3.777353800E-1,-5.530500412E-1,5.260050297E0,4.939950466E0
3.797254570E-1,-6.769500375E-1,5.313000202E0,5.245950222E0
3.817153770E-1,-7.969500422E-1,5.302950382E0,5.526000500E0
3.837055290E-1,-9.019500613E-1,5.221950054E0,5.833050251E0
3.856953770E-1,-9.529500604E-1,5.148000240E0,6.147000313E0
3.876855290E-1,-9.790500402E-1,5.149950027E0,6.445950508E0
3.896756060E-1,-9.169500470E-1,5.160000324E0,6.742950439E0
3.916655310E-1,-7.489500642E-1,5.044950008E0,7.047000408E0
3.936556010E-1,-3.520500064E-1,4.774050236E0,7.296000481E0
3.956455260E-1,-1.579500139E-1,4.843950272E0,7.614000320E0
3.976356780E-1,-9.105000645E-2,5.080950260E0,7.789050579E0
3.996257570E-1,-7.050000131E-3,5.232000351E0,7.851000309E0
4.016156800E-1,3.299999982E-2,5.416050434E0,7.866000175E0
4.036057550E-1,1.120500043E-1,5.560050488E0,7.875000477E0
4.055956560E-1,1.690500081E-1,5.707950115E0,7.911000252E0
4.075858080E-1,2.509500086E-1,5.830050468E0,7.966050148E0
4.095758870E-1,3.370500207E-1,5.931000233E0,8.039999962E0
4.115658100E-1,3.919500113E-1,6.046050072E0,8.128950119E0
4.135558850E-1,4.609500170E-1,6.121950150E0,8.212950706E0
4.155458100E-1,5.040000081E-1,6.189000130E0,8.287050247E0
4.175358850E-1,5.449500084E-1,6.181950092E0,8.329950333E0
4.195260390E-1,5.809500217E-1,6.180000305E0,8.413949966E0
4.215159640E-1,6.390000582E-1,6.163050175E0,8.470950127E0
4.235060390E-1,6.859500408E-1,6.120000362E0,8.550000191E0
4.254959640E-1,7.150500417E-1,6.048000336E0,8.589000702E0
4.274860390E-1,7.560000420E-1,5.952000141E0,8.601000786E0
4.294762020E-1,8.160000443E-1,5.872950077E0,8.622000694E0
4.314660500E-1,8.590500355E-1,5.743950367E0,8.647950172E0
4.334562020E-1,8.850000501E-1,5.646000385E0,8.680050850E0
4.354461270E-1,9.330000281E-1,5.536050320E0,8.704050064E0
4.374362020E-1,9.190500379E-1,5.428050041E0,8.754000664E0
4.394261270E-1,9.310500622E-1,5.341950417E0,8.797050476E0
4.414162020E-1,9.019500613E-1,5.256000042E0,8.833050728E0
4.434061270E-1,8.470500112E-1,5.181000233E0,8.866050720E0
4.453962790E-1,8.089500666E-1,5.116950035E0,8.902050018E0
4.473863570E-1,7.489500642E-1,5.097000122E0,8.926050186E0
4.493762810E-1,6.820500493E-1,5.068950176E0,8.938050270E0
4.513663550E-1,6.049500108E-1,5.064000130E0,8.911950111E0
4.533562760E-1,5.479500294E-1,5.056950092E0,8.887950897E0
4.553464270E-1,4.810500145E-1,5.059050083E0,8.845050812E0
4.573362760E-1,4.249500334E-1,5.062050343E0,8.811000824E0
4.593264270E-1,3.970500231E-1,5.077950478E0,8.794950485E0
4.613165040E-1,3.780000210E-1,5.100000381E0,8.797050476E0
4.633064290E-1,3.540000021E-1,5.124000072E0,8.811000824E0
4.652965810E-1,3.630000055E-1,5.104950428E0,8.794950485E0
4.672864290E-1,6.190500259E-1,4.924950123E0,8.874000549E0
4.692765810E-1,6.460500360E-1,5.016000271E0,8.835000038E0
4.712666580E-1,6.049500108E-1,5.176950455E0,8.763000488E0
4.732565830E-1,5.860500336E-1,5.299050331E0,8.704050064E0
4.752466580E-1,6.600000262E-1,5.392050266E0,8.653050423E0
4.772366070E-1,7.080000043E-1,5.500050068E0,8.622000694E0
4.792267590E-1,7.270500064E-1,5.631000042E0,8.526000023E0
4.812168380E-1,7.609500289E-1,5.731950283E0,8.476050377E0
4.832067610E-1,7.650000453E-1,5.847000122E0,8.419050217E0
4.851968360E-1,8.250000477E-1,5.952000141E0,8.361000061E0
4.871867610E-1,8.400000334E-1,6.046050072E0,8.356050491E0
4.891768320E-1,8.830500245E-1,6.096000195E0,8.325000763E0
4.911669860E-1,9.430500269E-1,6.153000355E0,8.320050240E0
4.931569110E-1,9.829500318E-1,6.177000523E0,8.313000679E0
4.951469860E-1,9.859500527E-1,6.205950260E0,8.280000687E0
4.971369110E-1,1.014000058E0,6.201000214E0,8.263050079E0
4.991269860E-1,1.048050046E0,6.144000053E0,8.227050781E0
5.011171250E-1,1.093050003E0,6.048000336E0,8.191050529E0
5.031070500E-1,1.129050016E0,5.956950188E0,8.152950287E0
5.050971250E-1,1.153050065E0,5.907000065E0,8.079000473E0
5.070870500E-1,1.182000041E0,5.863950253E0,8.023950577E0
5.090771250E-1,1.228050113E0,5.823000431E0,7.983000278E0
5.110670500E-1,1.251000047E0,5.823000431E0,7.918050289E0
5.130571350E-1,1.287000060E0,5.818050385E0,7.918050289E0
5.150470600E-1,1.294950008E0,5.824950218E0,7.882050514E0
5.170372120E-1,1.314000010E0,5.851950169E0,7.849050522E0
5.190272910E-1,1.345050097E0,5.871000290E0,7.830000401E0
5.210174430E-1,1.381050110E0,5.920950413E0,7.861050606E0
5.230072910E-1,1.407000065E0,5.944950104E0,7.863000393E0
5.249972230E-1,1.447950125E0,5.968950272E0,7.915950298E0
5.269873750E-1,1.444950104E0,6.012000084E0,7.911000252E0
5.289774520E-1,1.450050116E0,5.991000175E0,7.927950382E0
5.309673770E-1,1.282950044E0,5.847000122E0,7.939950466E0
5.329574520E-1,8.520000577E-1,5.394000053E0,7.843950272E0
5.349473770E-1,6.580500603E-1,5.326950073E0,7.854000568E0
5.369375340E-1,6.100500226E-1,5.542950153E0,8.023950577E0
5.389276120E-1,4.849500358E-1,5.731950283E0,8.128950119E0
5.409175360E-1,4.159500301E-1,5.940000057E0,8.148000717E0
5.429076100E-1,3.580500185E-1,6.139050484E0,8.115000725E0
5.448975360E-1,3.300000131E-1,6.364050388E0,8.080950737E0
5.468876100E-1,2.790000141E-1,6.517050266E0,8.074049950E0
5.488777590E-1,3.109500110E-1,6.655950546E0,8.062050819E0
5.508676840E-1,3.319500089E-1,6.730050087E0,8.079000473E0
5.528577590E-1,4.039500058E-1,6.730050087E0,8.107049942E0
5.548476840E-1,4.879500270E-1,6.691950321E0,8.155050278E0
5.568377590E-1,6.190500259E-1,6.598950386E0,8.224950790E0
5.588279130E-1,7.440000176E-1,6.465000153E0,8.253000259E0
5.608178140E-1,8.490000367E-1,6.334950447E0,8.281949997E0
5.628078890E-1,9.709500670E-1,6.217950344E0,8.301000595E0
5.647978140E-1,1.038000107E0,6.144000053E0,8.340000153E0
5.667878890E-1,1.113000035E0,6.061950207E0,8.359050751E0
5.687778140E-1,1.141050100E0,6.034050465E0,8.395050049E0
5.707678890E-1,1.177050114E0,6.012000084E0,8.443050385E0
5.727580430E-1,1.231950045E0,6.010050297E0,8.497950554E0
5.747479680E-1,1.219950080E0,5.995050430E0,8.541000366E0
5.767380430E-1,1.225050092E0,5.986050129E0,8.586000443E0
5.787279680E-1,1.186950088E0,5.979000092E0,8.635950089E0
5.807180430E-1,1.165050030E0,5.980950356E0,8.694000244E0
5.827081970E-1,1.192050099E0,6.007050514E0,8.758950233E0
5.846981370E-1,1.242000103E0,6.049950123E0,8.791950226E0
5.866879830E-1,1.258950114E0,6.024000168E0,8.838000298E0
5.886781350E-1,1.279950023E0,6.058050156E0,8.862000465E0
5.906682120E-1,1.285050035E0,6.037950516E0,8.908950806E0
5.926583660E-1,1.309050083E0,6.067050457E0,8.917050362E0
5.946483090E-1,1.342050076E0,6.082050323E0,8.941050529E0
5.966381550E-1,1.354050040E0,6.100950241E0,8.953050613E0
5.986283070E-1,1.369050026E0,6.070050240E0,8.962050438E0
6.006183840E-1,1.480950117E0,5.884950161E0,8.875950813E0
6.026083090E-1,1.612950087E0,5.466000080E0,8.802000046E0
6.045983840E-1,1.666050076E0,5.557050228E0,8.854050636E0
6.065882860E-1,1.705950022E0,5.623950481E0,8.851950645E0
6.085784380E-1,1.732950091E0,5.794050217E0,8.950050354E0
6.105685170E-1,1.672950029E0,5.995050430E0,9.145950317E0
6.125584400E-1,1.579050064E0,6.196050167E0,9.445950508E0
6.145485150E-1,1.522050023E0,6.385950089E0,9.715950012E0
6.165384400E-1,1.468950033E0,6.520050526E0,9.934050560E0
6.185285100E-1,1.399950027E0,6.613050461E0,1.000800037E1
6.205186640E-1,1.387950063E0,6.642000198E0,9.958050728E0
6.225085890E-1,1.411950111E0,6.618000507E0,9.838050842E0
6.244986640E-1,1.431000113E0,6.544050217E0,9.658950806E0
6.264885890E-1,1.528950095E0,6.402000427E0,9.348000526E0
6.284786640E-1,1.692000031E0,6.165000439E0,8.986050606E0
6.304688020E-1,2.005950212E0,5.647950172E0,8.557050705E0
6.324587280E-1,2.875050068E0,4.312050343E0,7.839000225E0
6.344488020E-1,3.246000051E0,3.996000290E0,7.566000462E0
6.364387280E-1,3.532950163E0,4.012950420E0,7.471050262E0
6.384288020E-1,3.760950089E0,4.141950130E0,7.360050201E0
6.404189560E-1,3.937950134E0,4.293000221E0,7.224000454E0
6.424087900E-1,4.077000141E0,4.425000191E0,7.051950455E0
6.443987140E-1,4.171950340E0,4.470000267E0,6.834000111E0
6.463888650E-1,4.225049973E0,4.614000320E0,6.598950386E0
6.483789420E-1,4.279950142E0,4.698000431E0,6.417000294E0
6.503690960E-1,4.303950310E0,4.899000168E0,6.379050255E0
6.523589440E-1,4.309050083E0,5.092950344E0,6.369000435E0
6.543488810E-1,4.285050392E0,5.245950222E0,6.214050293E0
6.563390330E-1,4.291950226E0,5.341950417E0,6.100950241E0
6.583291100E-1,4.327950001E0,5.469000340E0,6.004950523E0
6.603190350E-1,4.375950336E0,5.574000359E0,5.974050522E0
6.623091100E-1,4.393050194E0,5.761050224E0,5.920950413E0
6.642990350E-1,4.387950420E0,5.955000401E0,5.911950111E0
6.662891590E-1,4.315950394E0,6.145950317E0,5.890050411E0
6.682792380E-1,4.237050056E0,6.364050388E0,5.911950111E0
6.702691610E-1,4.132050037E0,6.558000088E0,5.917050362E0
6.722592360E-1,4.065000057E0,6.670050144E0,5.890050411E0
6.742491610E-1,3.981000185E0,6.819000244E0,5.862000465E0
6.762393130E-1,3.934950113E0,6.871950150E0,5.770950317E0
6.782291650E-1,3.817950249E0,6.997950554E0,5.731950283E0
6.802193170E-1,3.732000113E0,7.101000309E0,5.668050289E0
6.822093940E-1,3.622050285E0,7.096950531E0,5.569950104E0
6.841993190E-1,3.475950241E0,7.084950447E0,5.493000031E0
6.861893940E-1,3.409050226E0,6.988950253E0,5.419050217E0
6.881793190E-1,3.354000092E0,7.048950195E0,5.440050125E0
6.901694710E-1,3.253050089E0,7.101000309E0,5.491050243E0
6.921595500E-1,3.178950071E0,7.189950466E0,5.518950462E0
