"Time (s)","X (rad/s)","Y (rad/s)","Z (rad/s)"
4.055354162E-2,-8.192138076E-1,-1.097782016E0,8.528418094E-2
5.058354163E-2,-8.827818632E-1,-1.070339680E0,6.116499752E-2
6.061254162E-2,-8.751181364E-1,-1.045407653E0,-2.213461325E-2
7.064154162E-2,-8.195305467E-1,-1.035941005E0,-1.426580995E-1
8.067054162E-2,-7.235434651E-1,-1.007929564E0,-2.413489521E-1
9.069954162E-2,-6.171402931E-1,-9.741473198E-1,-2.792896628E-1
1.007285416E-1,-5.140729547E-1,-9.179359674E-1,-2.571205199E-1
1.107575416E-1,-4.283239543E-1,-8.564944863E-1,-1.814438552E-1
1.207875416E-1,-3.611270189E-1,-8.006304502E-1,-8.152965456E-2
1.308165416E-1,-2.952177823E-1,-7.724717855E-1,2.341060899E-2
1.408455416E-1,-2.677692473E-1,-8.523852229E-1,8.414525539E-2
1.508745416E-1,-2.774557173E-1,-8.830597997E-1,1.198824793E-1
1.609035416E-1,-2.637577355E-1,-7.906108499E-1,1.476334035E-1
1.709325416E-1,-2.651660144E-1,-7.368639708E-1,1.519905925E-1
1.809625416E-1,-2.967169583E-1,-6.761592627E-1,1.388726532E-1
1.909915416E-1,-3.583214581E-1,-6.067141294E-1,1.295965910E-1
2.010205416E-1,-4.268006980E-1,-5.108199716E-1,1.356739104E-1
2.110495416E-1,-4.737351835E-1,-4.266113639E-1,1.497196853E-1
2.210785416E-1,-4.891555011E-1,-3.557176888E-1,1.538619548E-1
2.311075416E-1,-4.715077877E-1,-2.774114311E-1,1.329180598E-1
2.411375416E-1,-4.224144220E-1,-2.101907581E-1,1.044470444E-1
2.511665416E-1,-3.581936359E-1,-2.028657347E-1,9.324471653E-2
2.611955416E-1,-2.866504192E-1,-2.366598696E-1,1.071180776E-1
2.712245416E-1,-2.119319737E-1,-2.573331892E-1,1.269698143E-1
2.812535416E-1,-1.414115429E-1,-2.713564038E-1,1.339281499E-1
2.912825416E-1,-8.249470592E-2,-2.816703022E-1,1.352850348E-1
3.013125416E-1,-4.869816825E-2,-2.700287998E-1,1.257935613E-1
3.113415416E-1,-4.017924517E-2,-2.309921533E-1,9.863838553E-2
3.213705416E-1,-4.978840053E-2,-1.928381920E-1,7.162401080E-2
3.313995416E-1,-6.249913573E-2,-1.748754382E-1,4.662837461E-2
3.414285416E-1,-7.364978641E-2,-1.639335155E-1,2.726889774E-2
3.514575416E-1,-9.216728061E-2,-1.666531414E-1,6.248300895E-3
3.614865416E-1,-1.020072401E-1,-1.991407126E-1,-2.621614141E-3
3.715165416E-1,-1.134321988E-1,-2.407576591E-1,-1.288410462E-2
3.815455416E-1,-1.224992648E-1,-3.327748179E-1,-1.140055992E-2
3.915745416E-1,-1.001681313E-1,-4.479509592E-1,-1.370526012E-2
4.016035417E-1,-4.742933810E-2,-6.269090772E-1,-1.118164323E-2
4.116325417E-1,-7.157017477E-3,-8.728011250E-1,-4.540965334E-2
4.216615417E-1,3.495823592E-2,-9.703549147E-1,-1.519371867E-1
4.316915417E-1,7.326700538E-2,-9.457169175E-1,-3.113324344E-1
4.417205417E-1,9.483925253E-2,-8.698816895E-1,-4.713358879E-1
4.517495417E-1,6.945027411E-2,-7.069508433E-1,-6.427816749E-1
4.617785417E-1,-3.116288595E-2,-5.617806315E-1,-8.212134838E-1
4.718075417E-1,-1.882992536E-1,-5.287176967E-1,-9.885324240E-1
4.818365417E-1,-3.762929142E-1,-4.474985898E-1,-1.098873258E0
4.918665417E-1,-5.745519400E-1,-3.538605273E-1,-1.139302015E0
5.018955417E-1,-7.562924027E-1,-4.072332680E-1,-1.139368534E0
5.119245417E-1,-9.039860368E-1,-5.244070292E-1,-1.147909045E0
5.219535417E-1,-1.013232112E0,-5.322398543E-1,-1.145993114E0
5.319825417E-1,-1.080390930E0,-5.059403181E-1,-1.115356445E0
5.420115417E-1,-1.157330990E0,-3.810492456E-1,-1.103609204E0
5.520415417E-1,-1.208174467E0,-5.227310061E-1,-1.101835847E0
5.620705417E-1,-1.194339752E0,-7.690584064E-1,-1.109674573E0
5.720995417E-1,-1.125990033E0,-8.924962282E-1,-1.128045321E0
5.821285417E-1,-1.025619864E0,-8.892331123E-1,-1.105893612E0
5.921575417E-1,-9.035376906E-1,-9.134073853E-1,-1.027100086E0
6.021865417E-1,-7.280252576E-1,-5.626853108E-1,-9.024841189E-1
6.122155417E-1,-5.083454251E-1,-6.828857660E-1,-7.417892218E-1
6.222455417E-1,-3.453060687E-1,-1.042829990E0,-5.464312434E-1
6.322745417E-1,-2.777824104E-1,-8.705737591E-1,-2.736284733E-1
6.423035417E-1,-3.006374538E-1,-6.629369259E-1,-9.904738981E-4
6.523325416E-1,-3.875657022E-1,-6.301819086E-1,1.325667948E-1
6.623615416E-1,-5.127661824E-1,-5.724700093E-1,1.216533929E-1
6.723905416E-1,-6.417095065E-1,-4.511673450E-1,1.614321023E-2
6.824205416E-1,-7.441372275E-1,-3.595698774E-1,-1.004801020E-1
6.924495416E-1,-8.239697218E-1,-3.367926478E-1,-1.640345752E-1
7.024785416E-1,-8.740147948E-1,-3.210146129E-1,-1.843952835E-1
7.125075416E-1,-9.155145884E-1,-3.360412419E-1,-1.772231311E-1
7.225365416E-1,-9.571860433E-1,-3.772131503E-1,-1.455056220E-1
7.325655416E-1,-9.793025255E-1,-3.310850859E-1,-1.247476190E-1
7.425955416E-1,-9.653432369E-1,-3.189329803E-1,-1.124264970E-1
7.526245416E-1,-9.313077927E-1,-4.604829252E-1,-6.405816972E-2
7.626535416E-1,-9.092952609E-1,-3.993236721E-1,1.894802041E-2
7.726825416E-1,-8.283122778E-1,-6.418833137E-1,7.097101212E-2
7.827115416E-1,-7.114169598E-1,-7.412781119E-1,3.596058814E-3
7.927405416E-1,-6.014257669E-1,-3.864129484E-1,-1.634725630E-1
8.027695416E-1,-5.295903683E-1,-7.016492635E-2,-2.870396376E-1
8.127995416E-1,-5.411742926E-1,1.504670531E-1,-3.715193868E-1
8.228285416E-1,-6.221342683E-1,2.024308741E-1,-4.877849519E-1
8.328575416E-1,-7.210171819E-1,7.596294582E-2,-6.805693507E-1
8.428865416E-1,-7.986863852E-1,-1.017431468E-1,-7.218475342E-1
8.529155416E-1,-8.164744377E-1,-4.414767325E-1,-6.165733337E-1
8.629445416E-1,-7.809308171E-1,-7.435503006E-1,-4.783863723E-1
8.729745416E-1,-7.006338239E-1,-9.105408788E-1,-3.539123535E-1
8.830035416E-1,-5.937266946E-1,-9.267164469E-1,-2.366988957E-1
8.930325416E-1,-4.800960422E-1,-8.319249749E-1,-1.433681548E-1
9.030615416E-1,-3.530802429E-1,-6.121491194E-1,-1.199499220E-1
9.130905416E-1,-1.926151961E-1,-3.894989789E-1,-1.144571528E-1
9.231195416E-1,-1.376359444E-2,-1.698645502E-1,-1.316982359E-1
9.331485416E-1,1.763062030E-1,-1.919728704E-2,-1.378131211E-1
9.431785416E-1,3.369468153E-1,4.681136832E-2,-1.419612914E-1
9.532075416E-1,4.386066198E-1,1.474637631E-2,-1.499105692E-1
9.632365416E-1,4.723550677E-1,-2.258867472E-1,-1.800228804E-1
9.732655416E-1,4.611151814E-1,-6.786981821E-1,-1.747397035E-1
9.832945416E-1,4.216154218E-1,-1.244311452E0,-1.229100525E-1
9.933235416E-1,3.677844107E-1,-1.706614137E0,-7.436461747E-2
1.003353542E0,3.509226143E-1,-1.921532750E0,-7.342857122E-2
1.013382542E0,3.883733153E-1,-1.815899014E0,-1.403072029E-1
1.023411542E0,4.773736894E-1,-1.488384128E0,-2.256513536E-1
1.033440542E0,6.019321084E-1,-1.065804839E0,-3.059832156E-1
1.043469250E0,7.530760765E-1,-5.994679928E-1,-3.638909757E-1
1.053498250E0,8.979909420E-1,-1.531847864E-1,-3.925918639E-1
1.063528250E0,9.843998551E-1,2.049832642E-1,-4.348931313E-1
1.073557250E0,9.880436063E-1,4.282576144E-1,-4.875448942E-1
1.083586250E0,9.341937900E-1,3.012916744E-1,-5.114327669E-1
1.093615250E0,8.862720728E-1,-5.656151474E-2,-5.440916419E-1
1.103644250E0,8.900756240E-1,-2.957843542E-1,-5.963212848E-1
1.113673250E0,9.717702270E-1,-2.484259009E-1,-6.405217648E-1
1.123702250E0,1.125447869E0,8.879558742E-2,-6.392961144E-1
1.133732250E0,1.299190640E0,5.346894264E-1,-6.062210202E-1
1.143761250E0,1.432500243E0,8.717994690E-1,-5.298684239E-1
1.153790250E0,1.476728201E0,1.056523919E0,-4.284909964E-1
1.163819250E0,1.430980206E0,1.036989331E0,-3.784956932E-1
1.173848250E0,1.319087744E0,8.896674514E-1,-3.978393078E-1
1.183877250E0,1.179042935E0,8.162736297E-1,-3.983269334E-1
1.193907250E0,1.048425078E0,7.828797102E-1,-4.386077821E-1
1.203936250E0,9.114701152E-1,7.478341460E-1,-5.659098625E-1
1.213965250E0,7.518284917E-1,6.873665452E-1,-6.799176335E-1
1.223994250E0,5.889226198E-1,4.963029623E-1,-6.870340705E-1
1.234023250E0,4.455044568E-1,3.133427501E-1,-6.176078916E-1
1.244052250E0,3.520855308E-1,1.812111288E-1,-4.959055483E-1
1.254081250E0,3.161837459E-1,1.174209565E-1,-3.539369404E-1
1.264111250E0,3.120120168E-1,1.582570076E-1,-2.430293560E-1
1.274140250E0,2.989223003E-1,3.339976668E-1,-1.722694337E-1
1.284169250E0,2.659541070E-1,5.241661668E-1,-1.585086435E-1
1.294198250E0,1.854339540E-1,6.826133728E-1,-1.778410524E-1
1.304227250E0,7.980407774E-2,9.731868505E-1,-2.186238319E-1
1.314256250E0,-1.977870241E-2,1.122392058E0,-3.256136775E-1
1.324286250E0,-1.123138443E-1,1.120061398E0,-4.340852797E-1
1.334315250E0,-1.848823279E-1,1.083688855E0,-5.258751512E-1
1.344344250E0,-2.348742187E-1,9.375024438E-1,-5.842599869E-1
1.354373250E0,-2.567643523E-1,7.009852529E-1,-6.028869152E-1
1.364402250E0,-2.339929789E-1,3.641413152E-1,-5.552548766E-1
1.374431250E0,-1.784098744E-1,1.080978364E-1,-4.622873962E-1
1.384460250E0,-1.012376994E-1,4.942029342E-2,-3.363761306E-1
1.394490250E0,-2.593575418E-2,1.572253257E-1,-2.113119364E-1
1.404519250E0,3.770174459E-2,1.987642199E-1,-9.497053921E-2
1.414548250E0,6.366036832E-2,1.725192964E-1,-4.186152294E-2
1.424577250E0,6.562219560E-2,1.805944592E-1,-9.084720910E-2
1.434606250E0,6.303067505E-2,1.623147875E-1,-2.294881642E-1
1.444635250E0,5.874214694E-2,1.418378800E-1,-4.432143271E-1
1.454664250E0,4.192455113E-2,7.115491480E-2,-6.767450571E-1
1.464694250E0,1.756927930E-3,-1.212159991E-1,-8.445550799E-1
1.474723250E0,-4.322040081E-2,-3.907425702E-1,-9.334250093E-1
1.484752250E0,-5.478350073E-2,-5.706613660E-1,-9.526400566E-1
1.494781250E0,-6.016761065E-3,-4.857352972E-1,-8.805924654E-1
1.504810250E0,8.076994866E-2,-2.788587511E-1,-6.486135125E-1
1.514839250E0,1.569073349E-1,-4.465930164E-2,-3.135378361E-1
1.524869250E0,1.710727364E-1,1.052402854E-1,1.705926470E-2
1.534898250E0,1.055105105E-1,1.528429706E-2,2.349564433E-1
1.544927250E0,1.984223723E-2,-1.817946136E-1,2.998109758E-1
1.554956250E0,-5.082367733E-2,-3.733536601E-1,1.911444217E-1
1.564985250E0,-1.016837358E-1,-5.272417665E-1,-9.051118977E-3
1.575014250E0,-1.197040156E-1,-6.199112535E-1,-2.157537043E-1
1.585043250E0,-1.146444976E-1,-6.403793097E-1,-3.476332128E-1
1.595073250E0,-9.327103198E-2,-5.946943760E-1,-3.872362971E-1
1.605102250E0,-8.356761932E-2,-5.128850937E-1,-3.726677001E-1
1.615131250E0,-9.833777696E-2,-3.935413659E-1,-3.212631047E-1
1.625160250E0,-1.669154018E-1,-2.590298355E-1,-2.286277562E-1
1.635189250E0,-2.853661478E-1,-1.568435580E-1,-1.460577846E-1
1.645218250E0,-4.142301381E-1,-1.158206090E-1,-1.015904695E-1
1.655248250E0,-5.196545720E-1,-1.304030120E-1,-9.900347143E-2
1.665277250E0,-5.569936037E-1,-7.347379625E-2,-9.852080047E-2
1.675306250E0,-5.307210088E-1,8.067423105E-2,-6.368425488E-2
1.685335250E0,-4.667655230E-1,2.687177062E-1,1.205565035E-2
1.695364250E0,-3.921512067E-1,4.388521612E-1,9.163835645E-2
1.705393250E0,-3.432659507E-1,5.362570286E-1,1.414687783E-1
1.715422250E0,-3.213880658E-1,5.647022724E-1,1.415313631E-1
1.725452250E0,-3.211255372E-1,5.402478576E-1,8.010622859E-2
1.735481250E0,-3.338479996E-1,5.015023351E-1,-2.799306763E-3
1.745510250E0,-3.449234068E-1,4.740827084E-1,-8.261647075E-2
1.755539250E0,-3.475354314E-1,4.617461562E-1,-1.490458399E-1
1.765568250E0,-3.612603843E-1,4.354445338E-1,-1.960088313E-1
1.775597250E0,-3.815225065E-1,3.523744047E-1,-2.557512522E-1
1.785626250E0,-3.940229118E-1,2.354398817E-1,-2.987183332E-1
1.795656250E0,-3.935129344E-1,8.778331429E-2,-3.105004430E-1
1.805685250E0,-3.823014200E-1,-5.213294178E-3,-2.979907990E-1
1.815714250E0,-3.429654539E-1,-2.434411086E-2,-2.769310474E-1
1.825743250E0,-2.943593860E-1,-3.374224901E-2,-2.530907691E-1
1.835772250E0,-2.308882922E-1,-5.131005868E-2,-2.468222231E-1
1.845801250E0,-1.635377854E-1,-6.632198393E-2,-2.476139367E-1
1.855831250E0,-9.829967469E-2,-4.956644401E-2,-2.530196309E-1
1.865860250E0,-3.946432844E-2,-1.672635227E-2,-2.561760247E-1
1.875889250E0,2.606088296E-2,1.981288893E-3,-2.713547051E-1
1.885918250E0,9.951861948E-2,-4.385754094E-2,-3.037104309E-1
1.895947250E0,1.581025720E-1,-1.587146223E-1,-3.262037635E-1
1.905976250E0,1.878874302E-1,-2.703997791E-1,-2.964637280E-1
1.916005250E0,2.314934880E-1,-4.065469801E-1,-2.379159927E-1
1.926034250E0,2.821883559E-1,-2.998008728E-1,-1.534733921E-1
1.936064250E0,3.088980019E-1,-7.172614336E-2,-6.864878535E-2
1.946093250E0,2.989696264E-1,1.442577541E-1,-1.503823139E-2
1.956122250E0,2.515563071E-1,2.797220945E-1,2.416323312E-2
1.966151250E0,1.612771153E-1,2.750801444E-1,3.094123490E-2
1.976180250E0,3.930913657E-2,2.638658583E-1,-1.034335420E-2
1.986209250E0,-1.009881720E-1,2.143933475E-1,-7.124710828E-2
1.996239250E0,-3.227293491E-1,2.270433605E-1,-1.678685425E-3
2.006268250E0,-7.458845377E-1,4.701865315E-1,1.452032924E-1
2.016297250E0,-1.095196724E0,5.338014960E-1,9.763924778E-2
2.026326250E0,-1.344920397E0,4.237250686E-1,3.507178277E-2
2.036355542E0,-1.393235683E0,1.975904703E-1,3.194549680E-2
2.046384542E0,-1.293350577E0,6.602708250E-2,-7.822759449E-2
2.056413542E0,-9.916231036E-1,-4.663869739E-3,-2.183969617E-1
2.066443542E0,-5.095359087E-1,2.017639764E-2,-3.501227796E-1
2.076472542E0,-7.099825144E-2,1.320802867E-1,-4.590921402E-1
2.086501542E0,3.444757760E-1,8.002914488E-2,-4.901387095E-1
2.096530542E0,5.978228450E-1,-6.153757498E-2,-4.862145185E-1
2.106559542E0,5.917690396E-1,-3.314814866E-1,-5.047993660E-1
2.116588542E0,3.348376453E-1,-6.526494026E-1,-5.174411535E-1
2.126617542E0,-1.082299650E-1,-8.754230142E-1,-4.227176309E-1
2.136647542E0,-3.733354211E-1,-7.812246084E-1,-2.347210944E-1
2.146676542E0,-4.776600897E-1,-5.376409888E-1,-1.267369986E-1
2.156705542E0,-5.127778053E-1,-3.861353397E-1,-9.899272025E-2
2.166734542E0,-4.945802391E-1,-3.572146297E-1,-1.118483543E-1
2.176763542E0,-4.170921147E-1,-3.255131543E-1,-1.598598212E-1
2.186792542E0,-3.871897757E-1,-3.425173759E-1,-2.106537968E-1
2.196821542E0,-3.720395863E-1,-3.480684459E-1,-2.009526938E-1
2.206851542E0,-3.500320315E-1,-2.181753218E-1,-1.689026654E-1
2.216880542E0,-3.228800595E-1,-8.882025629E-2,-1.431703866E-1
2.226909542E0,-3.118013442E-1,-2.651397884E-2,-1.146835983E-1
2.236938542E0,-3.364161551E-1,-9.769085795E-3,-9.935471416E-2
2.246967542E0,-3.821437061E-1,-1.066972390E-1,-8.531272411E-2
2.256996542E0,-4.862187207E-1,-3.118980825E-1,-4.998083040E-2
2.267026542E0,-6.182495356E-1,-6.417899132E-1,1.758006401E-2
2.277055542E0,-7.549514174E-1,-1.208910584E0,5.973683670E-2
2.287084542E0,-8.507875204E-1,-1.937876940E0,8.356792480E-2
2.297113542E0,-9.109174609E-1,-2.845033169E0,1.161983013E-1
2.307142542E0,-9.736089110E-1,-3.824511290E0,1.559100598E-1
2.317171542E0,-9.603349566E-1,-4.846087933E0,1.983587146E-1
2.327200542E0,-8.079485893E-1,-5.560494423E0,2.512797117E-1
2.337230542E0,-3.890085220E-1,-5.328998566E0,3.019343913E-1
2.347259542E0,-2.406424880E-1,-4.823617935E0,3.937108815E-1
2.357288542E0,-3.484347165E-1,-3.886229038E0,5.919262767E-1
2.367317542E0,-4.489026666E-1,-2.582941055E0,7.277283072E-1
2.377346542E0,-3.629693985E-1,-1.426601052E0,7.866584659E-1
2.387375542E0,-2.347973585E-1,-4.673092067E-1,8.336493969E-1
2.397404542E0,-1.688303202E-1,2.065664083E-1,9.125447273E-1
2.407434542E0,-1.981042176E-1,5.348631144E-1,9.842734933E-1
2.417463542E0,-2.528481483E-1,4.826688766E-1,1.001018643E0
2.427492542E0,-2.879685760E-1,1.959742606E-1,9.543267488E-1
2.437521542E0,-2.813144028E-1,-1.341216266E-1,8.563929796E-1
2.447550542E0,-2.792215347E-1,-2.723911405E-1,7.927741408E-1
2.457579542E0,-3.157081604E-1,-1.640327126E-1,7.342211008E-1
2.467608542E0,-3.927896023E-1,3.206619620E-2,6.480422020E-1
2.477638542E0,-4.390662909E-1,1.894033551E-1,5.500661135E-1
2.487667542E0,-4.386074543E-1,2.419722229E-1,4.586873055E-1
2.497696542E0,-4.354121983E-1,1.867334694E-1,3.500598967E-1
2.507725542E0,-4.613634050E-1,-1.809412614E-2,4.340548813E-1
2.517754542E0,-4.753727019E-1,-2.622410357E-1,5.521743298E-1
2.527783542E0,-4.475067258E-1,-4.595972002E-1,6.761701107E-1
2.537812542E0,-3.871405721E-1,-4.967810512E-1,8.212553859E-1
2.547842542E0,-2.492896020E-1,-4.007973969E-1,9.317290187E-1
2.557871542E0,-4.718762636E-2,-1.837852001E-1,9.909700155E-1
2.567900542E0,1.637634039E-1,1.421303600E-1,1.004953027E0
2.577929542E0,3.285488784E-1,4.759733081E-1,9.684175253E-1
2.587958542E0,3.956816494E-1,6.476121545E-1,9.024583101E-1
2.597987542E0,3.312443197E-1,6.044839025E-1,8.343287706E-1
2.608016542E0,1.459134221E-1,3.842392266E-1,8.633177876E-1
2.618046542E0,-7.784030586E-2,1.526347548E-1,9.071385264E-1
2.628075542E0,-2.364386022E-1,-3.199421242E-2,8.025230765E-1
2.638104542E0,-2.206785381E-1,-4.005346820E-2,7.299354076E-1
2.648133542E0,-1.075535789E-1,1.349045485E-1,7.054061890E-1
2.658162542E0,7.890338451E-2,4.453457892E-1,7.609314919E-1
2.668191542E0,2.328919470E-1,7.758886814E-1,8.005761504E-1
2.678220542E0,3.191346824E-1,1.001684546E0,8.416359425E-1
2.688250542E0,3.282722235E-1,1.018916607E0,8.564148545E-1
2.698279542E0,2.345137745E-1,9.428929687E-1,7.977706790E-1
2.708308542E0,8.632725477E-2,7.697752118E-1,7.587668300E-1
2.718337542E0,-9.939920157E-2,3.618854582E-1,8.260859847E-1
2.728366542E0,-3.301677704E-1,-1.453894079E-1,9.630587697E-1
2.738395542E0,-5.445120335E-1,-4.043242633E-1,1.066594481E0
2.748424542E0,-6.379328966E-1,-3.883710206E-1,1.121042967E0
2.758454542E0,-7.349324226E-1,-2.700633109E-1,1.115347266E0
2.768483542E0,-8.461117148E-1,-4.876039550E-2,1.067031622E0
2.778512542E0,-8.767226338E-1,2.331256121E-1,9.815906286E-1
2.788541542E0,-8.004348874E-1,5.319432020E-1,9.408755898E-1
2.798570542E0,-7.181077600E-1,7.757819891E-1,9.372147918E-1
2.808599542E0,-5.960603356E-1,8.332148790E-1,1.002283812E0
2.818628542E0,-4.708800912E-1,8.631293774E-1,1.029385805E0
2.828658542E0,-3.824684918E-1,1.144438982E0,9.487261176E-1
2.838687542E0,-3.538514972E-1,1.569170237E0,8.386379480E-1
2.848716542E0,-3.276751935E-1,1.888668537E0,7.339390516E-1
2.858745542E0,-2.085602880E-1,1.840535641E0,6.316944361E-1
2.868774542E0,3.450430185E-2,1.050571561E0,6.171439290E-1
2.878803542E0,2.419272512E-1,1.067393050E-1,8.134633899E-1
2.888832542E0,2.637297213E-1,-2.131973356E-1,1.069031835E0
2.898862542E0,3.439750075E-1,-3.148547113E-1,1.383881330E0
2.908891542E0,4.800239503E-1,-4.720823765E-1,1.681949973E0
2.918920542E0,6.192998290E-1,-5.280260444E-1,1.825581431E0
2.928949542E0,7.651252151E-1,-4.128753543E-1,1.779683590E0
2.938978542E0,9.134129882E-1,-1.563937664E-1,1.618458986E0
2.949007542E0,1.022822380E0,1.818519533E-1,1.461168051E0
2.959036542E0,1.192886472E0,5.417134762E-1,1.355463505E0
2.969065542E0,1.175358534E0,3.578504622E-1,1.288550735E0
2.979095542E0,1.006430030E0,6.998699903E-2,1.243226171E0
2.989124542E0,7.691962123E-1,3.668546304E-2,1.153725028E0
2.999153542E0,6.153866649E-1,-1.951877028E-1,9.861262441E-1
3.009182542E0,2.906969190E-1,-5.361431837E-1,7.928463221E-1
3.019211542E0,1.277396977E-1,-8.343762159E-1,6.378820539E-1
3.029240542E0,1.528593749E-1,-1.137568355E0,5.284984708E-1
3.039293792E0,2.539606988E-1,-1.284407020E0,4.518244565E-1
3.049323792E0,3.799115419E-1,-1.232371688E0,4.252946377E-1
3.059352792E0,5.639607310E-1,-9.947761893E-1,3.635023832E-1
3.069381792E0,6.704572439E-1,-6.834417582E-1,3.465046585E-1
3.079410792E0,5.631161332E-1,-6.513826251E-1,4.074364603E-1
3.089439792E0,3.609614670E-1,-9.422116280E-1,5.768657327E-1
3.099468792E0,6.765046716E-2,-1.487276316E0,7.879119515E-1
3.109497792E0,-2.868842781E-1,-1.956026673E0,1.086849570E0
3.119527792E0,-5.934401751E-1,-2.412627220E0,1.283742189E0
3.129556792E0,-6.741216779E-1,-2.857347965E0,1.267998576E0
3.139585792E0,-6.091056466E-1,-2.952018023E0,1.248194575E0
3.149614792E0,-3.487777710E-1,-2.801585197E0,1.185671806E0
3.159643792E0,1.107386872E-1,-2.529119253E0,9.957457781E-1
3.169672792E0,5.923762321E-1,-1.789231539E0,8.648186326E-1
3.179701792E0,1.015657425E0,-7.902845740E-1,7.848114371E-1
3.189730792E0,1.317821026E0,-7.973970473E-2,5.136752725E-1
3.199760792E0,1.585610628E0,1.970671266E-1,1.999919415E-1
3.209789792E0,1.782277942E0,1.297098696E-1,6.948960572E-2
3.219818792E0,1.899345160E0,-1.359803826E-1,-2.608592063E-2
3.229847792E0,1.993865967E0,-2.631043792E-1,-7.827293873E-2
3.239876792E0,2.112860441E0,-1.549387574E-1,-1.702321619E-1
3.249905792E0,2.242890120E0,-4.815799650E-3,-2.940929532E-1
3.259935792E0,2.292671442E0,-2.410187945E-2,-4.314817190E-1
3.269964792E0,2.238178253E0,-1.756814718E-1,-6.257341504E-1
3.279993792E0,2.078310490E0,-4.800147414E-1,-8.026031852E-1
3.290022792E0,1.865429759E0,-8.734283447E-1,-8.428916931E-1
3.300051792E0,1.602579474E0,-1.114189029E0,-6.810106635E-1
3.310080792E0,1.246453762E0,-1.181273103E0,-4.450658560E-1
3.320109792E0,8.890959024E-1,-1.079576135E0,-2.021141946E-1
