"Time (s)","X (m/s^2)","Y (m/s^2)","Z (m/s^2)"
2.026375005E-3,-2.755020905E0,7.409441986E0,6.420298920E0
1.200537500E-2,-2.789149933E0,7.330556030E0,6.434669037E0
2.198437499E-2,-2.840493164E0,7.304061127E0,6.305188293E0
3.196437500E-2,-2.903362427E0,7.264992371E0,6.172115021E0
4.194337499E-2,-2.956352234E0,7.214397583E0,6.048771515E0
5.195337500E-2,-3.023562469E0,7.206015015E0,5.870192871E0
6.196237500E-2,-3.090323639E0,7.240593109E0,5.695506134E0
7.197237499E-2,-3.288661194E0,7.295528870E0,5.529800720E0
8.195137500E-2,-3.217708740E0,7.332052917E0,5.596711578E0
9.196137500E-2,-2.916235657E0,7.200626221E0,5.664819946E0
1.019713750E-1,-2.487227783E0,7.032675476E0,5.723497925E0
1.119503750E-1,-2.037562866E0,6.998396759E0,5.839806061E0
1.219603750E-1,-1.609752502E0,7.072642365E0,5.924529877E0
1.319703750E-1,-1.355281677E0,7.116501160E0,5.992638245E0
1.419793750E-1,-1.237177277E0,7.190297699E0,5.991141357E0
1.519593750E-1,-1.181942139E0,7.284451904E0,6.042035522E0
1.619683750E-1,-1.126856689E0,7.332052917E0,6.160139923E0
1.719783750E-1,-1.032702484E0,7.265142059E0,6.279441833E0
1.819883750E-1,-9.181906128E-1,7.198081512E0,6.357878723E0
1.919673750E-1,-7.942483521E-1,7.189848633E0,6.478677521E0
2.019773750E-1,-5.777984619E-1,7.151827698E0,6.643185425E0
2.119873750E-1,-3.351530457E-1,7.100484467E0,6.764133911E0
2.219663750E-1,-1.481918335E-1,7.134463806E0,6.977590027E0
2.319763750E-1,-2.664459229E-2,7.130871277E0,7.003785553E0
2.419853750E-1,8.217910767E-2,7.044201508E0,6.911876678E0
2.519953750E-1,2.252815247E-1,6.972201233E0,6.862030334E0
2.619743750E-1,4.037104797E-1,6.899003448E0,6.953340454E0
2.719843750E-1,6.246510315E-1,6.697672119E0,7.025640106E0
2.819943750E-1,7.837701416E-1,6.268664246E0,7.101831665E0
2.920043750E-1,8.439450073E-1,5.812562714E0,7.209607544E0
3.019833750E-1,7.156617737E-1,5.643414459E0,7.438780975E0
3.119933750E-1,6.655160522E-1,5.460494843E0,7.411088562E0
3.220033750E-1,5.679190063E-1,5.268444214E0,6.882238312E0
3.320123750E-1,7.294331360E-1,5.329666901E0,6.581513672E0
3.419923750E-1,9.304650879E-1,5.468428345E0,6.762038269E0
3.520013750E-1,9.187893677E-1,5.441933441E0,6.735543365E0
3.620113750E-1,7.539820862E-1,5.267246704E0,6.522536316E0
3.719903750E-1,9.087602234E-1,5.194348297E0,6.285429382E0
3.820003750E-1,9.788145447E-1,5.404361572E0,6.702911224E0
3.920103750E-1,8.872050476E-1,5.667364655E0,6.764732666E0
4.020203750E-1,7.277865601E-1,5.810317383E0,6.687792664E0
4.119993750E-1,6.047424316E-1,5.950426025E0,6.700216827E0
4.220093750E-1,5.442681885E-1,5.989195404E0,6.587950287E0
4.320183750E-1,3.736230469E-1,6.109096069E0,6.518794098E0
4.420283750E-1,3.025209045E-1,6.293063507E0,6.698121185E0
4.520073750E-1,1.007405090E0,6.077212372E0,6.459367676E0
4.620173750E-1,1.898801422E0,6.698121185E0,6.857539673E0
4.720273750E-1,2.667752380E0,7.641908569E0,7.332352295E0
4.820373750E-1,3.579057312E0,7.456593933E0,7.503296814E0
4.920163750E-1,3.739224243E0,7.342231750E0,7.464677124E0
5.020263750E-1,3.520529022E0,7.298822021E0,6.918163605E0
5.120363750E-1,2.856809235E0,7.240742798E0,6.633006592E0
5.220153750E-1,2.555186462E0,7.433841248E0,6.505471802E0
5.320253750E-1,3.031346283E0,7.652985535E0,5.723946991E0
5.420343750E-1,3.288212128E0,7.794141998E0,5.508395233E0
5.520443750E-1,3.083288269E0,8.286917267E0,4.930297394E0
5.620233750E-1,2.640359344E0,8.491841125E0,4.343068542E0
5.720333750E-1,2.448458405E0,8.289012909E0,5.254223785E0
5.820433750E-1,3.012485504E0,7.591463470E0,6.869065704E0
5.920533750E-1,3.177143097E0,7.460036774E0,6.932084656E0
6.020323750E-1,3.098855896E0,7.530390472E0,6.650819550E0
6.120423750E-1,3.157384186E0,7.390281830E0,6.828949127E0
6.220513750E-1,3.199147339E0,7.431146851E0,7.255561981E0
6.320313750E-1,3.160677338E0,7.403454437E0,7.552394714E0
6.420403750E-1,3.130290527E0,7.241640930E0,7.443720703E0
6.520503750E-1,3.161126404E0,7.097191315E0,6.940616913E0
6.620603750E-1,3.205583954E0,7.115004272E0,6.358926544E0
6.720393750E-1,3.412603455E0,7.314838715E0,5.791157227E0
6.820493750E-1,3.833677826E0,7.315138092E0,5.417683868E0
6.920593750E-1,4.084855499E0,7.135511627E0,5.270689545E0
7.020683750E-1,3.995491333E0,7.015610962E0,5.122647400E0
7.120483750E-1,3.909120941E0,6.957681427E0,4.937632141E0
7.220573750E-1,3.850143585E0,6.950945435E0,4.671635284E0
7.320673750E-1,3.734134827E0,7.051985321E0,4.558320923E0
7.420773750E-1,3.672463074E0,7.204667816E0,4.532724152E0
7.520563750E-1,3.623065796E0,7.373367004E0,4.406835938E0
7.620663750E-1,3.654051361E0,7.523355103E0,4.384083252E0
7.720663750E-1,3.908671875E0,7.487280121E0,4.496798859E0
7.820453750E-1,4.049379272E0,7.325466614E0,4.601730652E0
7.920553750E-1,3.943699036E0,7.364235992E0,4.684658203E0
8.020653750E-1,4.077071686E0,7.484436035E0,5.022505646E0
8.120743750E-1,4.248764648E0,7.513475647E0,5.214107208E0
8.220543750E-1,4.274361420E0,7.608078918E0,4.975802765E0
8.320633750E-1,4.160148926E0,7.801776123E0,4.285737762E0
8.420733750E-1,4.176165619E0,7.693251801E0,3.867657166E0
8.520833750E-1,3.987408142E0,7.569010162E0,4.444258118E0
8.620623750E-1,4.051025848E0,7.316036224E0,4.681065674E0
8.720723750E-1,4.497996368E0,7.247927856E0,4.623884583E0
8.820823750E-1,4.649181976E0,7.419171753E0,4.702321472E0
8.920613750E-1,4.360582123E0,7.467521210E0,4.960684204E0
9.020713750E-1,4.310885468E0,7.465126190E0,4.582869873E0
9.120803750E-1,4.621489563E0,7.852670288E0,4.046834564E0
9.220903750E-1,4.820725250E0,8.333919525E0,3.805386658E0
9.320693750E-1,4.768184509E0,8.638536072E0,3.736080780E0
9.420793750E-1,4.592300262E0,8.264314270E0,3.951931915E0
9.520893750E-1,4.399201813E0,7.868686981E0,4.095034332E0
9.620993750E-1,4.409979401E0,8.030949554E0,4.097878418E0
9.720783750E-1,4.361480255E0,8.171058197E0,4.342918854E0
9.820883750E-1,4.423601074E0,7.990533600E0,4.423301697E0
9.920983750E-1,4.612508240E0,7.765401764E0,4.259691925E0
1.002107375E0,4.751419373E0,7.560777283E0,4.239334259E0
1.012087375E0,4.836891632E0,7.403753815E0,4.433929596E0
1.022096375E0,4.946613464E0,7.372468872E0,4.517904968E0
1.032106375E0,5.115612030E0,7.282056885E0,4.646038513E0
1.042085375E0,5.286855927E0,7.152127075E0,4.578678589E0
1.052095375E0,5.529950409E0,7.086114349E0,4.422852631E0
1.062105375E0,5.799689484E0,6.959627380E0,4.676575012E0
1.072115375E0,5.984105988E0,6.942562866E0,5.036426697E0
1.082094375E0,6.302194519E0,7.109316101E0,4.977599030E0
1.092104375E0,6.652765503E0,7.358398132E0,4.431384888E0
1.102113375E0,6.845414886E0,7.609875183E0,3.968098297E0
1.112123375E0,6.915768585E0,7.659571838E0,3.805686035E0
1.122102375E0,6.902895355E0,7.439828796E0,3.935765533E0
1.132112375E0,6.813980255E0,7.099586334E0,4.197271729E0
1.142122375E0,6.687642975E0,6.866820374E0,3.942501526E0
1.152132375E0,6.377937012E0,7.058272247E0,3.488345947E0
1.162111375E0,6.110892334E0,7.397167511E0,3.489693146E0
1.172121375E0,6.042035522E0,7.606582031E0,3.628005524E0
1.182131375E0,5.990243225E0,7.526797943E0,3.614832916E0
1.192110375E0,5.889652405E0,7.208859100E0,3.541635132E0
1.202120375E0,5.229375458E0,6.712940369E0,3.073857880E0
1.212129375E0,3.585044861E0,6.225254517E0,2.208208008E0
1.222139375E0,3.337010651E0,6.507866821E0,2.411634979E0
1.232118375E0,4.412374420E0,7.306456146E0,4.687502289E0
1.242128375E0,4.446653137E0,7.747588806E0,4.999303894E0
1.252138375E0,5.437592468E0,8.316555634E0,3.582949219E0
1.262148375E0,5.890550537E0,8.632997589E0,3.030448151E0
1.272127375E0,5.442532196E0,8.791517944E0,2.811603241E0
1.282137375E0,4.646188202E0,8.556506653E0,2.635718994E0
1.292146375E0,3.988905029E0,8.234376526E0,3.042423248E0
1.302126375E0,3.099155273E0,7.874524841E0,3.335513763E0
1.312135375E0,2.810256042E0,7.903414764E0,1.483265533E0
1.322145375E0,3.428021393E0,7.990982666E0,1.053060150E0
1.332155375E0,3.473975830E0,7.972421265E0,1.236728210E0
1.342134375E0,3.697311401E0,7.958051147E0,1.499431915E0
1.352144375E0,3.698508911E0,8.008346558E0,1.777254181E0
1.362154375E0,3.672014008E0,8.035889282E0,1.622176666E0
1.372163375E0,3.671714630E0,8.156388702E0,1.421294403E0
1.382143375E0,3.556604004E0,8.336913300E0,1.207838287E0
1.392152375E0,3.381617889E0,8.677754517E0,1.138083344E0
1.402162375E0,3.420237579E0,9.156159668E0,1.300345917E0
1.412172375E0,3.232527924E0,9.587861938E0,1.445843353E0
1.422151375E0,3.002755737E0,9.856553192E0,1.882635040E0
1.432161375E0,2.992427216E0,9.990823975E0,2.155517578E0
1.442171375E0,2.747237091E0,1.005025040E1,2.618804169E0
1.452150375E0,2.947221222E0,9.728419647E0,1.367406464E0
1.462160375E0,2.979853363E0,9.269474030E0,7.505392456E-1
1.472170375E0,3.208128662E0,9.166188812E0,4.234693909E-1
1.482179375E0,3.221750336E0,9.482630768E0,-1.633103943E-1
1.492159375E0,2.913541260E0,9.941726074E0,-5.560935974E-1
1.502168375E0,2.554737396E0,1.015742752E1,-1.069376221E0
1.512178375E0,2.201771393E0,1.017464172E1,-1.442999268E0
1.522188375E0,1.948947144E0,1.009380981E1,-1.623374176E0
1.532167375E0,1.880988464E0,9.975855103E0,-1.913770294E0
1.542177375E0,1.937720490E0,9.835297394E0,-1.941462708E0
1.552187375E0,1.952988739E0,9.560468903E0,-1.920506287E0
1.562196375E0,1.886826324E0,9.327702942E0,-2.198178864E0
1.572176375E0,1.877994690E0,9.245673523E0,-2.367476807E0
1.582185375E0,1.909129944E0,9.107660522E0,-2.483186188E0
1.592195375E0,1.867965546E0,9.013805695E0,-2.552791443E0
1.602174375E0,1.751507721E0,9.102720795E0,-2.475102997E0
1.612184375E0,1.509910126E0,9.214687958E0,-2.308499451E0
1.622194375E0,1.419947205E0,9.107660522E0,-2.176174622E0
1.632204375E0,1.345851288E0,8.899293823E0,-1.949096832E0
1.642183375E0,1.343755646E0,8.834628296E0,-1.742227020E0
1.652193375E0,1.356179810E0,8.957522736E0,-1.864971771E0
1.662203375E0,1.408121796E0,9.313931580E0,-2.186503143E0
1.672212375E0,1.561702423E0,9.782307587E0,-2.297272797E0
1.682192375E0,1.545835419E0,9.938732300E0,-2.099833374E0
1.692201375E0,1.195863190E0,9.753267975E0,-1.898951111E0
1.702211375E0,7.505392456E-1,9.597442017E0,-1.806293793E0
1.712221375E0,3.849993896E-1,9.522897034E0,-1.706301727E0
1.722200375E0,2.642005920E-1,9.463769989E0,-1.671723633E0
1.732210375E0,1.390608215E-1,9.521998901E0,-1.807491302E0
1.742220375E0,1.466949463E-2,9.581275635E0,-2.012115784E0
1.752199375E0,-2.523751831E-1,9.662257233E0,-2.170336761E0
1.762209375E0,-5.658233643E-1,9.638307037E0,-2.415526886E0
1.772185250E0,-6.170169067E-1,9.375453644E0,-2.604134674E0
1.782195250E0,-1.115031281E0,8.996142426E0,-3.053350525E0
1.792174250E0,-1.642085266E0,8.689879303E0,-3.293451233E0
1.802184250E0,-1.911375275E0,7.921377411E0,-3.058889008E0
1.812194250E0,-1.615740051E0,8.238867188E0,-2.918181610E0
1.822204250E0,4.553530884E-1,8.646170197E0,-4.753365326E0
1.832183250E0,1.126257935E0,6.561605072E0,-3.824247437E0
1.842193250E0,-1.064137115E0,5.026996307E0,-2.695145416E0
1.852202250E0,-2.952759705E0,6.577023010E0,-3.932472382E0
1.862182250E0,-3.925586700E0,7.995024261E0,-4.258195038E0
1.872191250E0,-3.981270905E0,8.145162048E0,-4.757855988E0
1.882201250E0,-3.526217194E0,8.072563019E0,-5.088967438E0
1.892211250E0,-3.598666534E0,9.377998352E0,-5.688919830E0
1.902190250E0,-4.073928223E0,8.772657166E0,-5.687572632E0
1.912200250E0,-4.374054108E0,7.765252075E0,-5.754184113E0
1.922210250E0,-4.037553864E0,7.335196381E0,-6.277346191E0
1.932220250E0,-3.503314819E0,7.395670624E0,-6.422544250E0
1.942199250E0,-3.025807800E0,7.202871552E0,-6.869215393E0
1.952209250E0,-2.703977051E0,6.976691895E0,-6.957831116E0
1.962218250E0,-2.704276428E0,6.612648926E0,-7.323370972E0
1.972228250E0,-2.626737671E0,6.385720825E0,-7.724836121E0
1.982207250E0,-2.814746704E0,6.125262451E0,-8.008196869E0
1.992217250E0,-3.203937378E0,6.004164276E0,-8.199199677E0
2.002227250E0,-3.545976105E0,6.120023346E0,-8.405919800E0
2.012206250E0,-3.864214325E0,6.447691956E0,-8.349187775E0
2.022216250E0,-3.944148102E0,6.168522491E0,-7.916138306E0
2.032226250E0,-3.814966736E0,5.812862091E0,-7.505841522E0
2.042235250E0,-3.767216034E0,5.740562439E0,-7.517367554E0
2.052215250E0,-3.720363464E0,5.886958008E0,-7.381899261E0
2.062224250E0,-3.569776611E0,6.079906769E0,-7.140301666E0
2.072234250E0,-3.451073456E0,6.071524200E0,-6.876999207E0
2.082244250E0,-3.418141937E0,6.075416107E0,-6.632108459E0
2.092223250E0,-3.453169098E0,5.977519684E0,-6.739135895E0
2.102233250E0,-3.449127502E0,5.968089294E0,-6.623725891E0
2.112243250E0,-3.648662567E0,5.902675323E0,-6.546187134E0
2.122253250E0,-4.054468689E0,5.866001587E0,-6.557862854E0
2.132232250E0,-4.437372437E0,6.048921204E0,-6.644382935E0
2.142242250E0,-4.714296570E0,6.222410431E0,-6.729256439E0
2.152251250E0,-4.870421906E0,6.162684631E0,-6.734046478E0
2.162231250E0,-4.810845795E0,5.976322174E0,-6.826703796E0
2.172240250E0,-4.600982208E0,5.919739838E0,-6.874304810E0
2.182250250E0,-4.319866791E0,5.908064117E0,-6.802005157E0
2.192260250E0,-4.226461029E0,5.826633453E0,-6.817572784E0
2.202239250E0,-4.231849823E0,5.830375671E0,-6.877148895E0
2.212249250E0,-4.192182312E0,5.937253418E0,-6.812333679E0
2.222259250E0,-4.109254761E0,5.995781708E0,-6.788982239E0
2.232268250E0,-4.085454254E0,6.131848755E0,-6.783144379E0
2.242248250E0,-4.117188263E0,6.287525024E0,-6.790778503E0
2.252257250E0,-4.094136200E0,6.128705292E0,-6.895859985E0
2.262267250E0,-3.925287323E0,5.881569214E0,-6.833439789E0
2.272246250E0,-3.869303741E0,5.785618744E0,-6.861581268E0
2.282256250E0,-4.010011139E0,5.635331268E0,-6.879094849E0
2.292266250E0,-4.263434143E0,5.488486633E0,-7.104376373E0
2.302276250E0,-4.550387421E0,5.592220917E0,-7.410938873E0
2.312255250E0,-4.801864471E0,5.611081696E0,-7.510481873E0
2.322265250E0,-5.031337280E0,5.383554840E0,-7.673941956E0
2.332275250E0,-5.361700287E0,5.325475616E0,-8.142767029E0
2.342284250E0,-5.683081970E0,5.555996246E0,-8.446485443E0
2.352264250E0,-5.885910187E0,5.712271271E0,-8.506211243E0
2.362273250E0,-6.173761597E0,5.460943909E0,-8.664132843E0
2.372283250E0,-6.326144714E0,5.241649933E0,-8.691076813E0
2.382293250E0,-6.219865723E0,5.071154480E0,-8.528514862E0
2.392272250E0,-5.871390381E0,5.012177124E0,-8.571475525E0
2.402282250E0,-5.497617645E0,5.214107208E0,-8.466992798E0
2.412292250E0,-5.148842926E0,5.522016907E0,-8.427325287E0
2.422271250E0,-4.839735718E0,5.813909912E0,-8.339757385E0
2.432281250E0,-4.769831085E0,6.120023346E0,-8.219856720E0
2.442290250E0,-4.731211395E0,6.656208344E0,-7.898624725E0
2.452300250E0,-4.566404114E0,7.101681976E0,-7.420968018E0
2.462279250E0,-4.236639862E0,7.300169220E0,-6.983278198E0
2.472289250E0,-3.728147278E0,7.349566498E0,-6.519841919E0
2.482299250E0,-3.199746094E0,7.377558289E0,-5.987848206E0
2.492309250E0,-2.859952698E0,7.449558563E0,-5.440735931E0
2.502288250E0,-2.511776733E0,7.661368103E0,-4.801714783E0
2.512298250E0,-2.281256104E0,8.105943604E0,-4.000431061E0
2.522307250E0,-2.048789520E0,8.694369965E0,-3.247347107E0
2.532317250E0,-1.898352356E0,8.985514526E0,-2.581232300E0
2.542296250E0,-1.459465027E0,8.934320984E0,-1.880389709E0
2.552306250E0,-1.197659454E0,8.624016266E0,-1.102158051E0
2.562316250E0,-1.045875092E0,8.452922058E0,-3.011737061E-1
2.572295250E0,-9.373507690E-1,8.312963104E0,4.622387695E-1
2.582305250E0,-8.473878479E-1,8.021519165E0,1.383572845E0
2.592315250E0,-8.361611938E-1,7.762707367E0,2.323168945E0
2.602325250E0,-9.509724426E-1,7.712112579E0,3.180585938E0
2.612304250E0,-1.050216064E0,7.804171143E0,3.959566040E0
2.622314250E0,-1.042581940E0,7.990533600E0,4.583768005E0
2.632323250E0,-8.683442688E-1,7.885901184E0,5.102140045E0
2.642333250E0,-5.851332092E-1,7.735763397E0,5.512736206E0
2.652312250E0,-2.248324585E-1,7.584877167E0,5.718258820E0
2.662322250E0,1.803749084E-1,7.298971710E0,5.717360687E0
2.672332250E0,4.936734009E-1,7.231162720E0,5.528303833E0
2.682311250E0,5.436694336E-1,7.269782410E0,5.299579468E0
2.692321250E0,3.620970154E-1,7.364685059E0,5.100194092E0
2.702331250E0,1.640588379E-1,7.527546387E0,4.955594788E0
2.712340250E0,-4.760101318E-2,7.709418182E0,4.836292877E0
2.722320250E0,-2.746788025E-1,7.848778381E0,4.707560577E0
2.732329250E0,-4.444258118E-1,8.016130371E0,4.580175476E0
2.742339250E0,-5.219645691E-1,8.266110535E0,4.477489014E0
2.752349250E0,-5.364843750E-1,8.409662018E0,4.353546753E0
2.762328250E0,-4.875361633E-1,8.535999298E0,4.211342468E0
2.772330542E0,-4.622387695E-1,8.697663116E0,4.099075928E0
2.782340542E0,-4.608915710E-1,8.778794403E0,3.993246002E0
2.792350542E0,-4.327500916E-1,8.741821289E0,3.929179230E0
2.802329542E0,-3.872447205E-1,8.727301483E0,3.881727905E0
2.812339542E0,-4.182302856E-1,8.835376740E0,3.859274597E0
2.822348542E0,-5.203179932E-1,8.943152618E0,3.830234985E0
2.832328542E0,-5.950126648E-1,8.953780518E0,3.780538330E0
2.842337542E0,-6.791377258E-1,8.978479156E0,3.700155487E0
2.852347542E0,-7.629634094E-1,9.137897644E0,3.588936768E0
2.862357542E0,-9.385482788E-1,9.391769714E0,3.384012909E0
2.872336542E0,-1.152154083E0,9.619745636E0,3.133883057E0
2.882346542E0,-1.313518524E0,9.700128479E0,2.865790558E0
2.892356542E0,-1.348096619E0,9.586365051E0,2.710862732E0
2.902365542E0,-1.197659454E0,9.372010803E0,2.572999420E0
2.912345542E0,-1.044078827E0,9.320667572E0,2.510130157E0
2.922354542E0,-9.903405762E-1,9.279802551E0,2.517165527E0
2.932364542E0,-1.020278320E0,9.320966949E0,2.536026306E0
2.942374542E0,-1.133892059E0,9.391769714E0,2.592458954E0
2.952353542E0,-1.246457977E0,9.381441193E0,2.699037323E0
2.962363542E0,-1.280587006E0,9.363927612E0,2.802771606E0
2.972373542E0,-1.253193970E0,9.315129089E0,2.894231415E0
2.982352542E0,-1.149160309E0,9.186097412E0,2.988834686E0
2.992362542E0,-1.020128632E0,9.092541962E0,3.097658386E0
3.002371542E0,-9.647438049E-1,9.141041107E0,3.181783447E0
3.012381542E0,-9.276210022E-1,9.157357178E0,3.276985474E0
3.022361542E0,-8.719367981E-1,9.115444336E0,3.371139679E0
3.032370542E0,-7.637118530E-1,9.112300873E0,3.431314545E0
3.042380542E0,-6.602769470E-1,9.205257568E0,3.494632874E0
3.052390542E0,-5.685177612E-1,9.279652863E0,3.554658051E0
3.062369542E0,-4.787045288E-1,9.250313873E0,3.602558441E0
3.072379542E0,-3.944297791E-1,9.180858307E0,3.641327820E0
3.082389542E0,-3.525169373E-1,9.096583557E0,3.659290466E0
3.092368542E0,-3.112028503E-1,9.041498108E0,3.700454865E0
3.102378542E0,-2.996768188E-1,9.025331726E0,3.737877045E0
3.112387542E0,-2.601589966E-1,8.944948883E0,3.761827240E0
3.122397542E0,-2.088157654E-1,8.873397675E0,3.781885529E0
3.132376542E0,-1.966909790E-1,8.880732422E0,3.778891754E0
3.142386542E0,-2.251318359E-1,8.876690826E0,3.747606812E0
3.152396542E0,-2.408491516E-1,8.857680359E0,3.714675293E0
3.162406542E0,-2.826123047E-1,8.859925690E0,3.675007782E0
3.172385542E0,-2.900967407E-1,8.823401642E0,3.672014008E0
3.182395542E0,-2.637515259E-1,8.767717438E0,3.676654358E0
3.192404542E0,-2.327659607E-1,8.730744324E0,3.694167938E0
3.202414542E0,-2.198927307E-1,8.789871368E0,3.743116150E0
3.212393542E0,-2.487826538E-1,8.819210358E0,3.782035217E0
3.222403542E0,-2.360591125E-1,8.743168488E0,3.786675568E0
3.232413542E0,-2.275268555E-1,8.711434479E0,3.802392883E0
3.242392542E0,-2.395019531E-1,8.677604828E0,3.790417786E0
3.252402542E0,-2.480342102E-1,8.553961945E0,3.762575684E0
3.262412542E0,-2.383044434E-1,8.451275482E0,3.725752258E0
3.272422542E0,-2.844085693E-1,8.439899139E0,3.723357239E0
3.282401542E0,-3.225791931E-1,8.422086182E0,3.711831207E0
3.292411542E0,-4.408332825E-1,8.394543457E0,3.689078522E0
3.302420542E0,-5.364843750E-1,8.405770111E0,3.608995056E0
3.312430542E0,-5.863307190E-1,8.642278290E0,3.468886414E0
3.322409542E0,-5.794450378E-1,8.767717438E0,3.338357849E0
3.332419542E0,-5.650749207E-1,8.579109650E0,3.163970490E0
3.342429542E0,-6.306385803E-1,8.634195099E0,2.908302155E0
3.352408542E0,-7.779322815E-1,8.653205566E0,2.636916504E0
3.362418542E0,-1.057550812E0,8.526868286E0,2.385589142E0
3.372428542E0,-1.391506348E0,8.524922333E0,2.125879211E0
3.382437542E0,-1.730700989E0,8.579409027E0,1.857487335E0
3.392417542E0,-2.014810181E0,8.570427704E0,1.550026703E0
3.402426542E0,-2.283202057E0,8.654103699E0,1.195563812E0
3.412436542E0,-2.981649628E0,9.373208313E0,6.869215393E-1
3.422446542E0,-3.515888672E0,9.587562561E0,2.844085693E-1
3.432425542E0,-3.980522461E0,9.505982208E0,-6.855743408E-2
3.442435542E0,-4.189487915E0,9.672885132E0,-4.260140991E-1
3.452445542E0,-4.266577606E0,9.850266266E0,-8.167016602E-1
3.462454542E0,-4.235592041E0,9.386081543E0,-1.148112488E0
