"Time (s)","Acceleration x (m/s^2)","Acceleration y (m/s^2)","Acceleration z (m/s^2)"
5.152844000E-3,1.849865556E0,2.667380095E0,7.935457230E0
9.123157000E-3,1.939992905E0,2.613127470E0,7.937477589E0
1.309346900E-2,2.057270527E0,2.567426920E0,8.014140129E0
1.706378200E-2,2.140502453E0,2.607553720E0,8.245161057E0
2.103409400E-2,2.229835033E0,2.717552900E0,8.553870201E0
2.500440700E-2,2.278763056E0,2.849511623E0,8.948357582E0
2.897471900E-2,2.288004398E0,2.939371109E0,9.233353615E0
3.294503200E-2,2.313335180E0,2.963466406E0,9.436429977E0
3.691690700E-2,2.276742220E0,2.962431908E0,9.513589859E0
4.088721900E-2,2.311017513E0,2.938403845E0,9.543957710E0
4.485753200E-2,2.410597086E0,2.904856205E0,9.587781906E0
4.884034400E-2,2.576218605E0,2.890682697E0,9.693892479E0
5.279815700E-2,2.775349140E0,2.868885756E0,9.833618164E0
5.676846900E-2,3.066110373E0,2.820254564E0,1.001360416E1
6.074034400E-2,3.291711092E0,2.791074276E0,1.016643143E1
6.471065700E-2,3.476332903E0,2.725645542E0,1.027714920E1
6.868096900E-2,3.564372540E0,2.684944153E0,1.034781647E1
7.265128200E-2,3.571823359E0,2.682185888E0,1.042062855E1
7.662159400E-2,3.455857754E0,2.737568617E0,1.047563744E1
8.059190700E-2,3.323238134E0,2.853859663E0,1.049205303E1
8.456221900E-2,3.129384518E0,2.981863260E0,1.042377949E1
8.853253200E-2,2.905746937E0,3.120430231E0,1.026681519E1
9.250440700E-2,2.755476952E0,3.183512449E0,1.004819584E1
9.647471900E-2,2.638678551E0,3.181779146E0,9.744410515E0
1.004450320E-1,2.607869864E0,3.099456787E0,9.422504425E0
1.044153440E-1,2.632654428E0,3.023110628E0,9.083667755E0
1.083856570E-1,2.776057720E0,2.903266430E0,8.762748718E0
1.123559690E-1,2.923674583E0,2.783039331E0,8.591477394E0
1.163262820E-1,3.122738123E0,2.708761454E0,8.478089333E0
1.202981570E-1,3.328610897E0,2.629503965E0,8.452873230E0
1.242684690E-1,3.538563013E0,2.515865564E0,8.502470970E0
1.282387820E-1,3.709576130E0,2.425738096E0,8.693777084E0
1.322090940E-1,3.853630304E0,2.361697912E0,8.980152130E0
1.361794070E-1,4.249516487E0,2.364887238E0,9.555489540E0
1.401497190E-1,6.561491489E0,1.843056560E0,1.233406544E1
1.441200320E-1,3.381809711E0,3.580317974E0,1.116915226E1
1.480903440E-1,1.930713058E0,3.951591492E0,9.956613541E0
1.520622190E-1,4.970946789E0,2.033989191E0,1.245123768E1
1.560325320E-1,4.283389568E0,2.154944420E0,1.099046803E1
1.600028440E-1,2.806042671E0,2.533707142E0,8.628817558E0
1.639731570E-1,3.565818548E0,2.115717888E0,8.410447121E0
1.679434690E-1,4.318632126E0,2.115918875E0,8.376669884E0
1.719137820E-1,3.987341881E0,2.599490166E0,7.902694702E0
1.758856570E-1,3.684350729E0,2.985579014E0,7.625446320E0
1.798559690E-1,3.779046297E0,3.134728193E0,7.778397560E0
1.838262820E-1,3.841879606E0,3.293253183E0,8.087842941E0
1.877965940E-1,3.685356379E0,3.588448763E0,8.509347916E0
1.917669070E-1,3.366554022E0,3.801877499E0,8.698901176E0
1.957372190E-1,3.167366028E0,3.840673208E0,8.919569016E0
1.997169070E-1,3.039735794E0,3.768837452E0,9.111393929E0
2.036778440E-1,2.977630377E0,3.639330387E0,9.206902504E0
2.076481570E-1,2.980819225E0,3.503665209E0,9.380462646E0
2.116200320E-1,3.020668507E0,3.404506922E0,9.691699982E0
2.155903440E-1,3.030446529E0,3.367099762E0,9.873362541E0
2.195606570E-1,3.146460056E0,3.552985907E0,1.011011982E1
2.235309690E-1,3.190311909E0,3.835223913E0,1.019759464E1
2.275012820E-1,3.263507605E0,4.027669907E0,1.009465313E1
2.314715940E-1,3.220727921E0,4.011360168E0,9.824741364E0
2.354434690E-1,3.183062553E0,3.922277212E0,9.472400665E0
2.394137820E-1,3.295331240E0,3.675128460E0,9.136293411E0
2.433840940E-1,3.379396439E0,3.437125444E0,8.822212219E0
2.473544070E-1,3.352792263E0,3.090243816E0,8.473683357E0
2.513247190E-1,3.249027491E0,2.813196421E0,8.173747063E0
2.552950320E-1,3.100864649E0,2.554460049E0,7.959044933E0
2.592669070E-1,3.014883995E0,2.315288782E0,7.724872589E0
2.632356570E-1,3.038548231E0,2.142906189E0,7.585932255E0
2.672075320E-1,3.183119774E0,1.972716808E0,7.495038986E0
2.711778440E-1,3.394824743E0,1.860917211E0,7.470627308E0
2.751481570E-1,3.617485523E0,1.822667480E0,7.497452259E0
2.791184690E-1,3.829822540E0,1.884303808E0,7.534658432E0
2.830887820E-1,3.960536480E0,2.047914028E0,7.517831326E0
2.870590940E-1,4.064033031E0,2.390667915E0,7.322043419E0
2.910294070E-1,4.105155945E0,2.678920269E0,7.087747097E0
2.950012820E-1,4.126435757E0,3.007538795E0,6.858363152E0
2.989715940E-1,4.151641369E0,3.374684811E0,6.690462589E0
3.029419070E-1,4.157962322E0,3.717525005E0,6.461940765E0
3.069122190E-1,4.169866085E0,3.950672150E0,6.224321365E0
3.108825320E-1,4.160768032E0,4.187257767E0,5.984699726E0
3.148528440E-1,4.104198456E0,4.369350910E0,5.786967278E0
3.188247190E-1,4.013611317E0,4.483372688E0,5.516987801E0
3.227934690E-1,3.920802355E0,4.551051617E0,5.195781708E0
3.267653440E-1,3.871165514E0,4.557870388E0,4.963065624E0
3.307356570E-1,3.965027809E0,4.504671574E0,4.756435871E0
3.347059690E-1,4.175765514E0,4.421487331E0,4.634915829E0
3.386762820E-1,4.518318176E0,4.273439407E0,4.550170898E0
3.426465940E-1,4.874441624E0,4.138502121E0,4.580797195E0
3.466169070E-1,5.201154232E0,4.048863411E0,4.739532948E0
3.505887820E-1,5.560849667E0,3.929842710E0,5.073523998E0
3.545590940E-1,5.877583027E0,3.819058180E0,5.458186150E0
3.585294070E-1,6.273670197E0,3.654356241E0,5.976444721E0
3.624997190E-1,6.584475994E0,3.554288149E0,6.566098213E0
3.664700320E-1,6.726739883E0,3.543284416E0,7.056804180E0
3.704403440E-1,6.730876446E0,3.622446299E0,7.563800335E0
3.744122190E-1,6.573683262E0,3.820600033E0,7.883004665E0
3.783825320E-1,6.384521961E0,4.002061367E0,8.088925362E0
3.823528440E-1,6.239758968E0,4.204677582E0,8.242364883E0
3.863231570E-1,6.105434418E0,4.325728416E0,8.386208534E0
3.902934690E-1,6.057751656E0,4.346299648E0,8.426297188E0
3.942637820E-1,6.035198212E0,4.301825047E0,8.287758827E0
3.982340940E-1,6.019549847E0,4.182909489E0,8.119695663E0
4.022059690E-1,6.000961304E0,3.923225164E0,7.975411415E0
4.061794070E-1,6.075449944E0,3.596627235E0,7.917596340E0
4.101465940E-1,6.186416149E0,3.238789797E0,7.864933491E0
4.141169070E-1,6.276016712E0,2.793066263E0,7.698067188E0
4.180872190E-1,6.282126427E0,2.501011610E0,7.406922817E0
4.220575320E-1,6.264773369E0,2.195272207E0,6.921407223E0
4.260278440E-1,6.163622856E0,2.072018862E0,6.487156868E0
4.299997190E-1,6.064331055E0,2.057385445E0,5.987553596E0
4.339700320E-1,6.127844334E0,2.123905897E0,5.593161583E0
4.379387820E-1,6.268316746E0,2.256544590E0,5.404670715E0
4.419106570E-1,6.515705109E0,2.376130342E0,5.310750961E0
4.458809690E-1,6.782974720E0,2.529521942E0,5.285459042E0
4.498512820E-1,7.091701984E0,2.794215441E0,5.230765820E0
4.538215940E-1,7.365100384E0,3.067930222E0,5.126560688E0
4.577919070E-1,7.486592293E0,3.343234539E0,5.143789291E0
4.617622190E-1,7.556244373E0,3.616958857E0,5.218220234E0
4.657340940E-1,7.573951721E0,3.851571560E0,5.460704803E0
4.697044070E-1,7.675073147E0,3.974460840E0,5.688948631E0
4.736747190E-1,7.753018856E0,4.107645512E0,5.973447323E0
4.776450320E-1,7.816503525E0,4.235055447E0,6.249872208E0
4.816153440E-1,7.816561222E0,4.435009956E0,6.552288532E0
4.855856570E-1,7.703679085E0,4.536313057E0,6.891106606E0
4.895559690E-1,7.562986374E0,4.606626034E0,7.077308178E0
4.935278440E-1,7.375414848E0,4.570923805E0,7.279637337E0
4.975106570E-1,7.265032768E0,4.472521782E0,7.255848408E0
5.014684690E-1,7.088110924E0,4.311861515E0,7.132614136E0
5.054387820E-1,6.874433041E0,4.155338287E0,7.015441895E0
5.094090940E-1,6.739879131E0,4.048049450E0,6.971168518E0
5.133809690E-1,6.619536400E0,3.889821291E0,6.897436619E0
5.173497190E-1,6.505649567E0,3.733719349E0,6.858880520E0
5.213200320E-1,6.371305943E0,3.555705547E0,6.836489677E0
5.252919070E-1,6.226092815E0,3.351882219E0,6.875093937E0
5.292622190E-1,6.043846130E0,3.233512878E0,6.936806679E0
5.332325320E-1,5.806772232E0,3.135657310E0,7.002532005E0
5.372028440E-1,5.587530136E0,3.096229553E0,6.989804745E0
5.411731570E-1,5.464372635E0,3.087198496E0,6.913755417E0
5.451434690E-1,5.415847301E0,3.091584682E0,6.783185005E0
5.491153440E-1,5.458703041E0,3.137476921E0,6.742129326E0
5.530856570E-1,5.496828556E0,3.193874836E0,6.661090374E0
5.570544070E-1,5.462783337E0,3.249334097E0,6.396329880E0
5.610262820E-1,5.409554958E0,3.305971146E0,6.135974884E0
5.649965940E-1,5.391512394E0,3.370212317E0,5.802951336E0
5.689669070E-1,5.406567097E0,3.434903860E0,5.524955750E0
5.729450320E-1,5.562850952E0,3.424857616E0,5.227854729E0
5.769075320E-1,5.765850544E0,3.367952108E0,5.007616520E0
5.808794070E-1,5.942303181E0,3.298960924E0,4.847099781E0
5.848497190E-1,6.239222527E0,3.227738380E0,4.779784203E0
5.888200320E-1,6.675187588E0,3.162855387E0,4.818149090E0
5.927903440E-1,7.205570221E0,3.081356764E0,4.958008766E0
5.967606570E-1,7.755719662E0,2.858226776E0,5.098289490E0
6.007309690E-1,7.989613533E0,2.726833105E0,5.022546768E0
6.047012820E-1,7.931281567E0,2.674505472E0,4.768694401E0
6.086731570E-1,7.643833637E0,2.745000362E0,4.502717972E0
6.126419070E-1,7.127653122E0,2.920916557E0,4.173601151E0
6.166137820E-1,6.726950169E0,3.154475689E0,3.942685127E0
6.205840940E-1,6.501387596E0,3.389308691E0,3.822017431E0
6.245544070E-1,6.451846600E0,3.600132227E0,3.770791054E0
6.285247190E-1,6.499414921E0,3.820485115E0,3.781708717E0
6.324950320E-1,6.552183151E0,3.910229206E0,3.825187206E0
6.364653440E-1,6.541629314E0,3.932562590E0,3.878826857E0
6.404372190E-1,6.406797409E0,3.905527115E0,3.846342564E0
6.444075320E-1,6.109542847E0,3.839504719E0,3.603168249E0
6.483778440E-1,5.775599480E0,3.742472410E0,3.344565630E0
6.523481570E-1,5.492116928E0,3.706157207E0,3.205740213E0
6.563184690E-1,5.393552303E0,3.436445475E0,3.275536060E0
6.602887820E-1,5.494453430E0,3.005738258E0,3.504067421E0
6.642606570E-1,5.781700134E0,2.344852209E0,3.966770649E0
6.682309690E-1,6.108221531E0,1.831257820E0,4.610217094E0
6.722012820E-1,6.150742531E0,1.767840266E0,5.086596012E0
6.761715940E-1,5.765400410E0,1.948209882E0,4.978110313E0
6.801419070E-1,5.385766029E0,2.116531849E0,4.741908073E0
6.841122190E-1,5.337269306E0,2.209139347E0,4.772314548E0
6.880825320E-1,5.490373611E0,2.231242657E0,5.012596607E0
6.920528440E-1,5.586927414E0,2.246785879E0,5.196624279E0
6.960247190E-1,5.337125301E0,2.435870409E0,5.392431736E0
6.999950320E-1,4.847271919E0,2.772159815E0,5.667927742E0
7.039653440E-1,4.601617336E0,3.053526640E0,6.162397385E0
7.079356570E-1,4.559469700E0,3.366956234E0,6.945770741E0
7.119059690E-1,4.648428917E0,3.542939663E0,7.826224327E0
7.158762820E-1,4.853018284E0,3.535824299E0,8.725026131E0
7.198465940E-1,5.092074394E0,3.349833012E0,9.379591942E0
7.238184690E-1,5.230095387E0,3.134891033E0,9.765288353E0
7.277887820E-1,5.267128944E0,2.850143909E0,1.011013985E1
7.317590940E-1,5.254181385E0,2.623719454E0,1.033548164E1
7.357294070E-1,5.185707092E0,2.411669731E0,1.062752628E1
7.396997190E-1,5.096431732E0,2.233886003E0,1.092833424E1
7.436715940E-1,5.043194294E0,2.042694569E0,1.123809528E1
7.476419070E-1,5.125008583E0,1.753532529E0,1.159302139E1
7.516106570E-1,5.273717880E0,1.516180873E0,1.182694435E1
7.555825320E-1,5.590173721E0,1.258363605E0,1.199890518E1
7.595528440E-1,6.026818275E0,1.036641479E0,1.219634056E1
7.635294070E-1,6.405868530E0,9.794583321E-1,1.236971951E1
7.674934690E-1,6.686430454E0,9.284139276E-1,1.248041821E1
7.714653440E-1,6.870640755E0,8.170357347E-1,1.256901264E1
7.754340940E-1,6.793288708E0,7.212197185E-1,1.243745613E1
7.794059690E-1,6.536275864E0,6.053786874E-1,1.211811829E1
7.833762820E-1,6.336302757E0,4.863485396E-1,1.174922848E1
7.873465940E-1,6.140984058E0,4.373248816E-1,1.121698856E1
7.913169070E-1,6.040120602E0,5.016043782E-1,1.050787258E1
7.952872190E-1,6.080640316E0,6.490967870E-1,9.874176025E0
7.992575320E-1,6.126695156E0,8.511769772E-1,9.106374741E0
8.032278440E-1,6.071935177E0,1.006867170E0,8.366211891E0
8.071997190E-1,5.994870663E0,1.126663446E0,7.571375370E0
8.111684690E-1,5.920352936E0,1.121817589E0,6.799781799E0
8.151403440E-1,5.994717121E0,1.075551987E0,6.206757545E0
8.191106570E-1,6.384856701E0,9.936512113E-1,5.660620689E0
8.230809690E-1,6.973945618E0,8.388229609E-1,5.314380646E0
8.270512820E-1,7.874194145E0,5.372971892E-1,5.050233364E0
8.310215940E-1,8.800012589E0,1.719611287E-1,4.893384457E0
8.349919070E-1,9.413866997E0,-1.226980537E-1,4.667543888E0
8.389637820E-1,9.820411682E0,-3.505015671E-1,4.375010967E0
8.429340940E-1,9.842131615E0,-4.485010207E-1,4.268986225E0
8.469044070E-1,9.607222557E0,-5.837255120E-1,4.492920399E0
8.508747190E-1,9.088475227E0,-7.445583940E-1,4.757786274E0
8.548450320E-1,8.619892120E0,-8.227913976E-1,4.937274933E0
8.588169070E-1,8.323020935E0,-6.941652894E-1,5.120440960E0
8.627872190E-1,8.283946991E0,-3.831872046E-1,5.245906830E0
8.667575320E-1,8.286657333E0,-1.479616668E-2,5.206373692E0
8.707278440E-1,8.270406723E0,4.135743976E-1,5.018438339E0
8.746981570E-1,8.191550255E0,7.459949255E-1,4.843240261E0
8.786684690E-1,8.078495979E0,1.012900591E0,4.543783188E0
8.826434690E-1,7.983638287E0,1.202061653E0,4.248846054E0
8.866090940E-1,8.112063408E0,1.320095778E0,3.999264956E0
8.905794070E-1,8.655211449E0,1.394756556E0,3.739311934E0
8.945497190E-1,9.292413712E0,1.384557247E0,3.640038729E0
8.985215940E-1,9.995965004E0,1.249294400E0,3.586140633E0
9.024919070E-1,1.051126385E1,9.859801531E-1,3.539741039E0
9.064622190E-1,1.090511036E1,6.447872519E-1,3.574868679E0
9.104325320E-1,1.127756119E1,2.097416371E-1,3.702489376E0
9.144028440E-1,1.145319080E1,-1.206390411E-1,3.857116461E0
9.183747190E-1,1.136094666E1,-4.184298515E-1,4.012950420E0
9.223450320E-1,1.101399803E1,-6.149937510E-1,4.085389137E0
9.263153440E-1,1.060685921E1,-6.800203323E-1,4.142572403E0
9.302856570E-1,1.004125309E1,-6.646974683E-1,4.161141396E0
9.342559690E-1,9.680830002E0,-5.529744029E-1,4.148854256E0
9.382262820E-1,9.393583298E0,-3.097043335E-1,4.179164886E0
9.421965940E-1,9.259057999E0,-4.261679016E-3,4.257714272E0
9.461669070E-1,9.150801659E0,2.738009095E-1,4.347056389E0
9.501372190E-1,8.923525810E0,5.248185992E-1,4.462840080E0
9.541090940E-1,8.693336487E0,6.748009920E-1,4.602890968E0
9.580794070E-1,8.568963051E0,7.168048024E-1,4.686419964E0
9.620497190E-1,8.574872017E0,7.255005240E-1,4.769422531E0
9.660200320E-1,8.704082489E0,6.534063816E-1,4.816444397E0
9.699903440E-1,8.897830009E0,5.233341455E-1,4.839706421E0
9.739606570E-1,9.065567970E0,3.347668350E-1,4.782781601E0
9.779309690E-1,9.150256157E0,1.689061373E-1,4.691946030E0
9.819028440E-1,9.132443428E0,-2.149035409E-2,4.554939747E0
9.858731570E-1,8.984740257E0,-1.783680320E-1,4.525156021E0
9.898434690E-1,8.821789742E0,-3.638899326E-1,4.592806816E0
9.938137820E-1,8.672488213E0,-4.843757451E-1,4.742702484E0
9.977840940E-1,8.600297928E0,-5.227883458E-1,4.879977226E0
1.001768469E0,8.577562332E0,-4.811291993E-1,5.039382935E0
1.005724719E0,8.629948616E0,-3.884640336E-1,5.163258553E0
1.009695032E0,8.671472549E0,-2.067919970E-1,5.214159489E0
1.013666907E0,8.680513382E0,-3.462015465E-2,5.236895084E0
1.017637219E0,8.625485420E0,5.456864461E-2,5.204802513E0
1.021607532E0,8.565390587E0,1.886247844E-1,5.136884212E0
1.025577844E0,8.568205833E0,2.669152021E-1,5.012672901E0
1.029548157E0,8.590136528E0,3.134297132E-1,4.873627663E0
1.033518469E0,8.648402214E0,2.128732651E-1,4.190801144E0
1.037490344E0,8.700738907E0,5.360138789E-2,2.832369328E0
1.041460657E0,8.812797546E0,1.185608655E-2,9.037345052E-1
1.045430969E0,8.883819580E0,2.565530837E-1,-6.884670258E-1
1.049401282E0,8.797628403E0,5.866943598E-1,-1.497410417E0
1.053371594E0,8.406798363E0,8.614433408E-1,-1.610924244E0
1.057341907E0,8.014379501E0,8.287672997E-1,-8.426632285E-1
1.061313782E0,7.881750584E0,5.217157006E-1,6.600814462E-1
1.065282532E0,8.271564484E0,1.041669324E-1,2.357043743E0
1.069252844E0,8.776320457E0,-1.913254410E-1,3.595583439E0
1.073224719E0,9.336754799E0,-4.394509196E-1,4.608244419E0
1.077195032E0,9.635799408E0,-5.178467035E-1,5.155472755E0
1.081165344E0,9.761955261E0,-5.016523004E-1,5.483736992E0
1.085135657E0,9.754407883E0,-3.787722886E-1,5.431658268E0
1.089105969E0,9.584228516E0,-1.894771308E-1,5.166533947E0
1.093077844E0,9.351857185E0,6.412629783E-2,4.791917801E0
1.097046594E0,9.215818405E0,2.889418304E-1,4.618290424E0
1.101018469E0,9.070050240E0,5.936566591E-1,4.636294842E0
1.104988782E0,8.763458252E0,8.945216537E-1,4.861350060E0
1.108959094E0,8.429773331E0,1.107203364E0,5.124070168E0
1.112929407E0,8.101835251E0,1.258459449E0,5.420845985E0
1.116899719E0,7.895033360E0,1.295981288E0,5.518577576E0
1.120870032E0,7.818667889E0,1.287036657E0,5.437720776E0
1.124840344E0,7.861485958E0,1.283933759E0,5.326006889E0
1.128812219E0,7.820659637E0,1.308804631E0,5.213575363E0
1.132782532E0,7.659874916E0,1.367117882E0,5.112903595E0
1.136752844E0,7.545729160E0,1.366715670E0,5.046488762E0
1.140723157E0,7.509116650E0,1.290283203E0,5.009838581E0
1.144693469E0,7.539350510E0,1.130168557E0,4.987351894E0
1.148663782E0,7.630330563E0,9.384216666E-1,4.935139179E0
1.152635657E0,7.723158360E0,7.349816561E-1,4.861350060E0
1.156604407E0,7.710076809E0,6.193704009E-1,4.753457546E0
1.160576282E0,7.615122795E0,6.116898060E-1,4.720063686E0
1.164546594E0,7.362946033E0,7.039240003E-1,4.772256851E0
1.168516907E0,7.114466190E0,8.453830481E-1,4.892091274E0
1.172487219E0,6.766751289E0,1.097731948E0,5.257389069E0
1.176459094E0,6.270289421E0,1.464226723E0,5.775772095E0
1.180429407E0,5.778932571E0,1.792117476E0,6.235554695E0
1.184398157E0,5.291224003E0,2.078933001E0,6.672256947E0
1.188370032E0,4.974882603E0,2.216762781E0,6.837533474E0
1.192340344E0,4.701024532E0,2.262980223E0,6.591696739E0
1.196310657E0,4.473354816E0,2.196756601E0,6.144441128E0
1.200280969E0,4.312933922E0,2.114951611E0,5.880197525E0
1.204251282E0,4.279702663E0,1.962373853E0,5.668694019E0
1.208221594E0,4.337632656E0,1.764871478E0,5.490929127E0
1.212193469E0,4.485527515E0,1.510434866E0,5.305387974E0
1.216163782E0,4.596436501E0,1.186911106E0,5.033435345E0
1.220134094E0,4.659451485E0,9.144988656E-1,4.798746586E0
1.224104407E0,4.917278290E0,5.927373171E-1,4.511241436E0
1.228074719E0,5.629716396E0,1.191450506E-1,3.895921707E0
1.232045032E0,5.715447903E0,-1.293635070E-1,3.396251678E0
1.236015344E0,5.490555763E0,-2.461526692E-1,3.227632761E0
1.239988782E0,5.311775684E0,-3.552420735E-1,3.241816044E0
1.243957532E0,5.188455582E0,-4.628470838E-1,3.317606926E0
1.247927844E0,5.114560604E0,-5.090647340E-1,3.572589397E0
1.251898157E0,5.037984371E0,-4.368843436E-1,3.848478079E0
1.255868469E0,4.958362579E0,-2.782253921E-1,4.045473099E0
1.259838782E0,4.971253395E0,-1.512943804E-1,4.267865658E0
1.263809094E0,4.986087799E0,2.000594884E-2,4.960508347E0
1.267780969E0,4.788882256E0,3.401011229E-1,6.075813293E0
1.271751282E0,4.473249912E0,7.253282070E-1,6.985610485E0
1.275721594E0,4.159781933E0,1.129469514E0,7.751936436E0
1.279691907E0,4.114933491E0,1.323744535E0,8.130699158E0
1.283662219E0,4.286511898E0,1.266934991E0,8.220482826E0
1.287632532E0,4.724056721E0,1.016826987E0,8.065443039E0
1.291602844E0,5.255636692E0,7.330949903E-1,7.736489296E0
1.295574719E0,5.854647160E0,4.596771598E-1,7.273920059E0
1.299543469E0,6.317244530E0,2.343444675E-1,6.719011307E0
1.303515344E0,6.560323238E0,2.921883762E-2,6.186425686E0
1.307485657E0,6.746563435E0,-3.199611306E-1,5.542826176E0
1.311455969E0,6.961495399E0,-7.378546596E-1,4.991862774E0
1.315426282E0,7.289740562E0,-1.285743833E0,4.446195126E0
1.319396594E0,7.583786964E0,-1.748887658E0,4.039688587E0
1.323366907E0,7.780571461E0,-2.002807140E0,3.735931396E0
1.327338782E0,7.984566689E0,-2.219290972E0,3.453444242E0
1.331309094E0,8.134185791E0,-2.387938499E0,3.195378065E0
1.335279407E0,8.208233833E0,-2.635604143E0,2.959032297E0
1.339249719E0,8.127232552E0,-2.869508266E0,2.778308392E0
1.343220032E0,7.974051952E0,-3.074107170E0,2.673193216E0
1.347190344E0,7.746621609E0,-3.255587578E0,2.627837420E0
1.351162219E0,7.496034622E0,-3.390620708E0,2.727407455E0
1.355132532E0,7.253148079E0,-3.442086458E0,2.940433979E0
1.359107532E0,6.874433041E0,-3.396673203E0,3.267778873E0
1.363073157E0,6.529782772E0,-3.280372381E0,3.636457205E0
1.367043469E0,6.186712742E0,-3.165441275E0,4.179002285E0
1.371013782E0,6.001009464E0,-3.095166445E0,4.758925915E0
1.374984094E0,5.862720013E0,-3.068447351E0,5.183781624E0
1.378954407E0,5.678625107E0,-2.974220991E0,5.545469284E0
1.382924719E0,5.483555317E0,-2.831861734E0,5.849551678E0
